7088
7064
7080
7112
7112
7080
7120
7112
7096
7136
7112
7152
7168
7136
7160
7152
7184
7224
7504
7672
7744
7816
7680
7552
7440
7288
7224
7064
6984
6936
6896
6872
6856
6824
6832
6808
6792
6792
6768
6768
6800
6800
6784
6792
6800
6792
6776
6792
6752
6752
6752
6768
6760
6736
6744
6728
6744
6760
6752
6744
6744
6744
6744
6768
6752
6744
6768
6752
6768
6752
6768
6744
6776
6760
6752
6752
6768
6736
6768
6728
6752
6736
6752
6768
6768
6768
6752
6760
6736
6752
6728
6752
6744
6768
6744
6768
6728
6752
6728
6704
6688
6672
6648
6640
6624
6608
6624
6624
6640
6624
6624
6608
6648
6576
6600
6600
6584
6600
6608
6600
6616
6600
6584
6632
6600
6584
6592
6568
6608
6560
6584
6592
6576
6632
6608
6584
6600
6632
6608
6624
6576
6616
6632
6608
6632
6624
6608
6608
6608
6608
6624
6608
6616
6648
6616
6616
6632
6600
6616
6632
6608
6608
6648
6648
6616
6640
6600
6616
6616
6576
6568
6544
6504
6520
6544
6528
6520
6528
6528
6528
6512
6536
6512
6480
6504
6480
6512
6488
6504
6520
6496
6512
6504
6520
6496
6504
6504
6496
6496
6536
6504
6512
6520
6512
6520
6528
6496
6520
6496
6512
6528
6544
6512
6512
6520
6512
6536
6536
6544
6544
6512
6536
6528
6560
6560
6552
6520
6520
6544
6528
6560
6536
6560
6552
6560
6568
6528
6560
6568
6568
6568
6560
6528
6536
6496
6496
6488
6472
6464
6496
6456
6456
6440
6472
6456
6440
6456
6448
6464
6472
6416
6472
6440
6448
6440
6456
6464
6464
6480
6472
6480
6472
6456
6472
6472
6488
6480
6464
6448
6472
6448
6472
6480
6496
6504
6488
6480
6448
6496
6512
6480
6480
6480
6488
6504
6488
6480
6512
6528
6504
6520
6496
6528
6520
6520
6536
6520
6536
6528
6544
6536
6528
6544
6520
6544
6512
6480
6464
6472
6448
6424
6432
6432
6456
6448
6440
6440
6400
6416
6408
6432
6392
6456
6408
6440
6448
6424
6416
6416
6416
6448
6416
6408
6416
6416
6424
6424
6408
6424
6464
6424
6432
6448
6464
6456
6432
6464
6456
6432
6440
6440
6472
6448
6432
6448
6480
6472
6464
6440
6472
6448
6472
6480
6488
6488
6488
6472
6448
6448
6472
6440
6472
6424
6432
6384
6392
6376
6368
6360
6400
6368
6392
6368
6392
6376
6392
6360
6368
6384
6344
6344
6368
6360
6376
6376
6368
6392
6368
6376
6400
6344
6376
6376
6368
6360
6384
6376
6360
6368
6424
6376
6392
6408
6408
6344
6400
6408
6392
6416
6408
6416
6424
6416
6384
6376
6400
6400
6408
6408
6424
6432
6416
6448
6408
6456
6408
6392
6400
6368
6360
6392
6336
6344
6344
6320
6320
6296
6312
6320
6312
6312
6296
6256
6328
6288
6272
6272
6280
6312
6272
6280
6296
6312
6288
6288
6304
6288
6296
6272
6328
6312
6304
6280
6312
6328
6288
6304
6320
6328
6336
6336
6336
6352
6336
6320
6328
6336
6328
6336
6360
6320
6352
6384
6376
6392
6368
6384
6392
6384
6360
6352
6368
6352
6368
6320
6336
6328
6312
6288
6288
6288
6304
6296
6272
6304
6264
6264
6280
6248
6248
6280
6256
6296
6280
6280
6272
6288
6280
6288
6288
6288
6288
6288
6288
6296
6280
6296
6280
6320
6280
6288
6304
6320
6304
6320
6328
6320
6304
6320
6344
6312
6336
6336
6296
6336
6328
6320
6312
6312
6296
6296
6280
6296
6320
6344
6320
6352
6320
6384
6368
6368
6352
6360
6328
6328
6280
6320
6344
6352
6408
6560
6608
6632
6672
6648
6608
6584
6560
6512
6496
6472
6440
6416
6448
6432
6464
6488
6544
6584
6672
6736
6800
6896
6904
6944
6912
6888
6920
6872
6864
6816
6792
6696
6696
6704
6680
6632
6648
6624
6640
6656
6608
6640
6632
6640
6696
6688
6720
6760
6736
6752
6768
6720
6728
6744
6680
6640
6608
6600
6592
6640
6648
6624
6608
6624
6656
6624
6640
6624
6624
6632
6648
6656
6688
6728
6736
6760
6920
6912
6912
6920
6944
6752
6576
6464
6528
6488
6528
6568
6608
6696
6712
6816
6816
6832
7000
7048
7000
6856
6808
6408
5456
5048
4352
4720
5224
5352
6264
6544
6688
6680
6640
6576
6552
6568
6624
6912
7200
7128
6736
6512
6352
6064
5976
5856
5792
5752
5744
5888
6408
6864
6952
6896
6856
6808
6808
6776
6800
6760
6776
6760
6696
6696
6704
6696
6720
6720
6768
6768
6744
6728
6696
6720
6720
6720
6712
6728
6712
6720
6728
6704
6720
6736
6744
6728
6736
6720
6696
6736
6704
6720
6712
6744
6720
6744
6712
6752
6760
6760
6720
6736
6776
6728
6768
6776
6736
6736
6768
6744
6768
6744
6744
6728
6752
6784
6752
6760
6760
6784
6872
6968
7088
7112
7168
7128
7152
7120
7080
7080
7072
7064
7064
7128
7072
7032
6976
6944
6968
6936
6928
6928
6904
6896
6904
6888
6896
6864
6896
6872
6856
6824
6864
6880
6872
6864
6880
6856
6840
6840
6840
6824
6856
6864
6832
6792
6808
6800
6816
6816
6808
6808
6792
6800
6832
6824
6824
6832
6816
6840
6808
6824
6824
6832
6848
6840
6840
6840
6832
6824
6848
6848
6832
6840
6848
6840
6856
6840
6856
6832
6832
6848
6840
6816
6824
6824
6792
6784
6784
6776
6776
6712
6736
6728
6720
6696
6696
6720
6736
6704
6704
6712
6704
6720
6704
6704
6696
6688
6688
6680
6720
6720
6688
6688
6696
6656
6664
6672
6664
6688
6704
6680
6664
6688
6680
6696
6680
6672
6680
6656
6656
6688
6696
6696
6696
6696
6712
6696
6672
6704
6720
6696
6720
6688
6696
6744
6728
6712
6736
6752
6816
6896
6936
7016
6984
7008
7016
7080
7144
7208
7192
7152
7152
7192
7160
7200
7216
7200
7128
7120
7080
7072
7040
7016
7040
7016
7016
7000
7008
6984
7000
6976
6992
6952
7000
7000
6968
6960
6952
7000
6944
6960
6960
6952
6920
6920
6936
6960
6912
6896
6960
6928
6936
6920
6920
6904
6928
6912
6920
6920
6920
6920
6952
6928
6920
6920
6904
6912
6880
6896
6856
6832
6824
6784
6800
6768
6760
6768
6744
6728
6680
6696
6688
6664
6664
6640
6656
6656
6600
6600
6600
6568
6592
6560
6536
6560
6568
6544
6536
6520
6520
6528
6520
6528
6504
6520
6528
6552
6560
6560
6520
6520
6552
6560
6584
6568
6544
6560
6568
6592
6584
6584
6560
6616
6592
6576
6592
6616
6584
6600
6592
6600
6624
6608
6600
6600
6600
6584
6576
6496
6488
6448
6456
6456
6384
6416
6384
6384
6392
6360
6368
6384
6392
6384
6352
6376
6368
6392
6384
6368
6400
6384
6400
6392
6408
6392
6400
6384
6408
6424
6416
6384
6424
6424
6424
6440
6448
6456
6464
6464
6464
6440
6464
6472
6480
6488
6488
6464
6480
6472
6520
6488
6472
6528
6504
6520
6544
6552
6504
6488
6496
6480
6448
6416
6392
6400
6384
6344
6360
6360
6376
6360
6344
6328
6344
6328
6328
6352
6352
6368
6368
6352
6376
6368
6376
6360
6384
6384
6392
6384
6376
6416
6384
6408
6400
6408
6400
6400
6400
6408
6424
6416
6416
6440
6424
6456
6416
6464
6480
6488
6448
6480
6456
6440
6464
6488
6520
6504
6480
6480
6496
6520
6512
6512
6512
6528
6536
6496
6472
6448
6464
6416
6392
6384
6400
6360
6344
6384
6352
6344
6304
6376
6312
6344
6336
6296
6312
6312
6328
6320
6312
6352
6336
6320
6344
6368
6344
6368
6360
6320
6384
6368
6352
6360
6408
6384
6368
6368
6408
6408
6416
6424
6400
6416
6400
6408
6400
6440
6448
6416
6424
6424
6472
6448
6432
6456
6480
6456
6480
6448
6488
6472
6480
6448
6424
6400
6384
6392
6368
6360
6344
6296
6328
6256
6288
6280
6288
6304
6288
6272
6296
6304
6288
6288
6312
6320
6312
6312
6320
6328
6312
6320
6328
6368
6328
6336
6360
6336
6336
6376
6352
6368
6376
6344
6392
6368
6384
6360
6352
6400
6408
6400
6408
6392
6376
6424
6424
6408
6424
6416
6408
6424
6424
6408
6448
6464
6424
6424
6400
6384
6352
6312
6304
6312
6264
6248
6280
6240
6264
6248
6216
6272
6224
6232
6224
6256
6232
6256
6248
6288
6256
6264
6280
6248
6240
6280
6296
6288
6312
6296
6296
6320
6288
6336
6296
6320
6296
6336
6344
6320
6320
6360
6312
6320
6360
6344
6344
6344
6336
6376
6352
6352
6336
6368
6368
6376
6344
6368
6400
6376
6384
6360
6376
6352
6328
6288
6240
6240
6216
6216
6200
6168
6144
6176
6168
6168
6144
6168
6144
6144
6144
6160
6136
6136
6184
6176
6192
6184
6152
6200
6176
6184
6168
6168
6192
6192
6224
6200
6216
6224
6224
6200
6224
6232
6240
6240
6232
6240
6264
6280
6264
6280
6280
6280
6264
6288
6304
6280
6288
6304
6304
6320
6312
6312
6328
6312
6320
6320
6336
6288
6248
6272
6248
6216
6200
6160
6176
6168
6168
6136
6152
6128
6120
6112
6136
6112
6160
6144
6168
6160
6184
6168
6160
6168
6160
6184
6152
6192
6144
6184
6184
6184
6192
6200
6192
6200
6176
6216
6216
6200
6200
6248
6192
6256
6224
6256
6256
6264
6224
6232
6264
6264
6240
6304
6248
6272
6296
6296
6304
6304
6336
6312
6320
6304
6344
6352
6352
6336
6360
6352
6304
6264
6224
6216
6200
6184
6176
6168
6168
6144
6176
6152
6136
6144
6120
6104
6136
6144
6144
6168
6136
6176
6168
6168
6160
6160
6160
6200
6184
6208
6176
6192
6192
6192
6200
6224
6208
6240
6216
6224
6216
6248
6240
6240
6216
6264
6232
6240
6232
6256
6256
6280
6272
6288
6256
6296
6272
6296
6296
6280
6296
6256
6320
6312
6304
6312
6344
6264
6296
6264
6264
6200
6192
6160
6152
6136
6152
6136
6136
6120
6136
6080
6104
6088
6080
6104
6112
6152
6120
6128
6128
6152
6120
6152
6144
6144
6128
6160
6160
6136
6168
6168
6184
6152
6160
6208
6184
6184
6208
6232
6208
6216
6192
6232
6232
6256
6216
6272
6256
6240
6256
6280
6248
6256
6264
6304
6288
6256
6280
6264
6312
6288
6272
6312
6312
6288
6304
6312
6296
6296
6280
6256
6216
6184
6176
6144
6128
6104
6120
6128
6120
6128
6104
6064
6072
6096
6072
6104
6104
6128
6096
6104
6104
6128
6104
6080
6120
6112
6144
6104
6168
6144
6144
6152
6136
6120
6144
6136
6152
6176
6176
6192
6176
6176
6176
6192
6200
6200
6192
6224
6248
6216
6232
6240
6232
6232
6224
6240
6240
6272
6256
6248
6288
6232
6256
6288
6304
6272
6272
6216
6224
6200
6152
6152
6120
6112
6088
6072
6128
6072
6088
6080
6064
6064
6056
6056
6064
6072
6056
6072
6096
6096
6104
6080
6088
6088
6088
6096
6072
6128
6072
6120
6136
6136
6096
6168
6128
6128
6120
6136
6152
6176
6168
6184
6168
6136
6160
6152
6160
6168
6176
6168
6160
6192
6192
6168
6192
6168
6176
6168
6152
6176
6144
6144
6152
6144
6080
6112
6144
6104
6104
6104
6096
6032
6024
6008
5952
5920
5928
5888
5888
5880
5856
5848
5840
5832
5840
5816
5808
5816
5800
5792
5848
5800
5816
5800
5768
5792
5816
5792
5768
5808
5784
5816
5824
5808
5816
5824
5800
5792
5824
5840
5816
5808
5840
5808
5832
5856
5832
5848
5864
5840
5840
5832
5840
5848
5800
5800
5776
5800
5760
5816
5784
5832
5808
5832
5824
5784
5768
5776
5768
5752
5728
5720
5760
5744
5760
5720
5760
5736
5720
5752
5744
5736
5744
5800
5808
5792
5800
5816
5808
5808
5744
5776
5784
5768
5760
5768
5800
5784
5824
5848
5816
5824
5824
5864
5824
5864
5856
5840
5888
5864
5880
5912
5896
5920
5936
5936
5968
5960
5920
5976
5968
6016
5960
5984
5992
5976
6008
6000
5992
5976
5984
5984
6016
5992
5984
5984
5952
5912
5912
5872
5864
5832
5816
5824
5808
5832
5792
5792
5776
5768
5792
5768
5784
5776
5760
5776
5792
5792
5792
5800
5824
5840
5824
5824
5808
5840
5816
5848
5872
5888
5880
5856
5920
5896
5896
5872
5896
5928
5904
5928
5936
5944
5936
5928
5952
5960
5952
5960
5976
5984
6016
5984
5992
5976
6024
6016
6040
6016
6048
6016
6032
6040
6056
6032
6048
6048
6064
6048
6064
6072
6088
6080
6056
6056
6040
6048
5984
5976
5976
5952
5904
5928
5904
5920
5904
5912
5912
5888
5928
5896
5872
5888
5896
5872
5880
5888
5880
5912
5904
5896
5920
5912
5864
5928
5904
5920
5920
5920
5976
5952
5968
5976
5976
5960
5984
5992
6000
6008
6000
6024
6048
6016
6056
6024
6080
6056
6056
6040
6096
6072
6088
6088
6104
6088
6120
6104
6104
6112
6152
6160
6160
6168
6176
6184
6192
6168
6200
6208
6200
6224
6192
6192
6152
6136
6120
6104
6072
6120
6096
6080
6072
6032
6064
6064
6048
6056
6064
6048
6048
6072
6080
6080
6048
6080
6072
6080
6088
6072
6088
6088
6104
6104
6096
6112
6080
6088
6112
6112
6120
6144
6136
6136
6104
6112
6144
6112
6136
6112
6128
6152
6168
6120
6112
6152
6192
6136
6152
6144
6200
6192
6192
6160
6168
6208
6200
6200
6176
6208
6200
6176
6168
6152
6112
6136
6088
6104
6112
6136
6152
6144
6152
6160
6160
6160
6200
6184
6184
6216
6224
6224
6200
6232
6256
6200
6248
6264
6232
6240
6264
6248
6256
6264
6304
6288
6312
6312
6336
6312
6312
6328
6336
6360
6352
6384
6344
6392
6376
6400
6424
6384
6392
6392
6400
6424
6416
6432
6464
6424
6408
6424
6456
6424
6400
6400
6416
6392
6416
6360
6384
6328
6352
6360
6336
6344
6400
6400
6376
6392
6360
6368
6360
6352
6384
6384
6384
6360
6368
6360
6360
6336
6336
6344
6336
6328
6352
6328
6344
6344
6344
6352
6352
6368
6376
6400
6368
6376
6408
6384
6400
6416
6400
6424
6416
6456
6416
6440
6448
6440
6448
6456
6448
6496
6456
6488
6448
6472
6488
6472
6448
6464
6424
6448
6424
6400
6408
6392
6400
6384
6376
6368
6376
6400
6376
6400
6384
6376
6392
6424
6384
6400
6392
6368
6400
6424
6408
6384
6408
6416
6432
6400
6400
6384
6384
6432
6440
6440
6416
6424
6416
6416
6432
6448
6416
6432
6416
6440
6416
6424
6456
6432
6440
6448
6464
6464
6472
6432
6424
6424
6392
6392
6368
6352
6376
6360
6344
6352
6336
6360
6336
6352
6344
6384
6328
6352
6368
6336
6336
6360
6376
6336
6352
6376
6320
6360
6352
6360
6344
6376
6384
6352
6344
6360
6352
6368
6344
6400
6376
6384
6408
6400
6408
6440
6416
6384
6400
6408
6416
6432
6408
6400
6416
6368
6392
6384
6376
6360
6368
6352
6368
6320
6328
6344
6304
6336
6312
6296
6296
6344
6320
6328
6328
6352
6336
6328
6336
6344
6328
6336
6312
6360
6360
6360
6344
6352
6360
6328
6360
6352
6344
6352
6368
6400
6368
6392
6376
6392
6400
6376
6392
6408
6400
6384
6440
6400
6400
6416
6392
6416
6448
6432
6392
6440
6400
6408
6408
6432
6400
6432
6384
6376
6376
6360
6344
6368
6336
6336
6344
6320
6320
6352
6336
6336
6336
6336
6352
6312
6336
6344
6328
6352
6360
6336
6368
6360
6352
6336
6360
6344
6352
6368
6368
6376
6360
6360
6384
6376
6384
6368
6384
6408
6368
6392
6408
6352
6392
6440
6416
6408
6400
6384
6432
6424
6408
6424
6440
6456
6432
6424
6440
6432
6432
6416
6456
6464
6440
6424
6440
6416
6432
6408
6440
6392
6400
6368
6376
6384
6360
6368
6384
6376
6344
6328
6328
6352
6336
6352
6376
6368
6368
6336
6320
6368
6344
6360
6360
6360
6360
6368
6376
6368
6392
6360
6376
6368
6384
6376
6376
6392
6376
6384
6392
6384
6376
6368
6384
6400
6408
6416
6408
6424
6392
6408
6416
6424
6392
6408
6408
6408
6440
6432
6424
6408
6424
6456
6456
6456
6432
6424
6416
6408
6384
6376
6368
6368
6360
6384
6376
6352
6352
6336
6336
6336
6336
6328
6352
6352
6352
6312
6368
6320
6336
6344
6344
6312
6344
6368
6360
6352
6360
6392
6376
6344
6376
6368
6320
6368
6336
6368
6352
6384
6352
6376
6392
6368
6384
6384
6384
6400
6400
6368
6400
6400
6400
6376
6416
6416
6368
6368
6352
6360
6320
6328
6336
6320
6288
6280
6288
6272
6264
6264
6256
6248
6248
6248
6208
6232
6232
6216
6232
6208
6256
6208
6208
6208
6224
6216
6216
6224
6224
6232
6224
6240
6224
6240
6248
6248
6240
6264
6248
6240
6288
6288
6272
6264
6240
6288
6296
6312
6272
6296
6304
6304
6312
6312
6328
6336
6320
6304
6360
6312
6376
6320
6312
6304
6264
6216
6240
6240
6216
6224
6224
6208
6152
6192
6160
6136
6144
6120
6136
6136
6112
6112
6128
6112
6136
6120
6120
6152
6152
6152
6152
6128
6144
6120
6152
6160
6136
6176
6160
6184
6160
6192
6200
6184
6208
6160
6200
6200
6192
6176
6224
6216
6208
6256
6216
6224
6256
6256
6248
6280
6296
6272
6256
6280
6256
6256
6280
6264
6288
6280
6304
6264
6256
6256
6216
6168
6184
6152
6144
6112
6112
6144
6096
6096
6072
6088
6096
6112
6104
6120
6128
6112
6128
6136
6120
6120
6144
6144
6120
6112
6128
6128
6128
6120
6160
6128
6136
6128
6152
6136
6168
6152
6128
6184
6136
6168
6176
6144
6160
6184
6192
6224
6176
6152
6192
6184
6184
6216
6248
6192
6232
6216
6232
6240
6232
6264
6248
6192
6208
6168
6168
6152
6128
6096
6096
6072
6080
6072
6080
6040
6064
6072
6072
6080
6080
6080
6064
6080
6056
6088
6096
6096
6080
6096
6096
6096
6088
6104
6128
6112
6104
6112
6128
6136
6152
6112
6144
6152
6120
6168
6168
6192
6192
6176
6176
6192
6192
6176
6216
6208
6208
6224
6208
6208
6232
6224
6240
6240
6232
6208
6224
6224
6240
6232
6168
6200
6168
6192
6144
6152
6128
6104
6112
6064
6080
6088
6088
6096
6080
6104
6096
6056
6096
6096
6080
6120
6096
6104
6112
6104
6096
6120
6128
6104
6144
6168
6128
6136
6120
6144
6152
6176
6176
6168
6176
6184
6160
6184
6208
6184
6184
6216
6216
6208
6208
6208
6224
6232
6248
6240
6248
6248
6248
6232
6264
6248
6256
6256
6280
6264
6288
6288
6288
6280
6264
6224
6200
6184
6192
6168
6152
6160
6152
6160
6112
6120
6104
6096
6120
6080
6080
6120
6112
6120
6096
6144
6136
6136
6136
6144
6144
6160
6144
6168
6120
6144
6160
6192
6176
6168
6136
6184
6184
6192
6208
6176
6176
6192
6200
6176
6208
6184
6256
6224
6232
6224
6192
6208
6232
6264
6224
6264
6208
6264
6256
6256
6264
6264
6288
6272
6288
6280
6264
6312
6304
6272
6240
6264
6200
6240
6192
6176
6176
6168
6152
6152
6168
6144
6152
6128
6096
6136
6120
6136
6112
6144
6144
6136
6136
6120
6128
6128
6136
6144
6128
6152
6160
6144
6144
6152
6152
6168
6160
6184
6152
6160
6192
6200
6208
6208
6208
6176
6240
6208
6232
6216
6240
6248
6232
6232
6224
6256
6264
6256
6272
6304
6288
6288
6264
6296
6320
6288
6280
6248
6232
6224
6224
6192
6200
6200
6176
6168
6144
6144
6136
6112
6112
6120
6104
6072
6104
6112
6136
6112
6144
6128
6112
6136
6152
6112
6128
6128
6152
6136
6144
6168
6128
6168
6160
6192
6184
6168
6160
6176
6168
6208
6208
6136
6192
6208
6208
6208
6208
6224
6216
6240
6264
6224
6240
6256
6240
6248
6272
6240
6272
6248
6232
6216
6208
6168
6160
6168
6136
6120
6128
6128
6104
6088
6072
6072
6064
6088
6080
6080
6080
6096
6080
6096
6080
6088
6072
6088
6112
6080
6112
6128
6104
6104
6120
6104
6128
6144
6152
6152
6152
6152
6184
6152
6144
6152
6176
6184
6168
6168
6192
6192
6184
6192
6184
6176
6208
6216
6216
6232
6200
6232
6216
6232
6248
6256
6232
6248
6232
6232
6232
6192
6224
6192
6176
6168
6136
6208
6152
6120
6128
6128
6120
6128
6136
6096
6088
6104
6096
6104
6112
6104
6096
6080
6136
6112
6128
6104
6120
6112
6112
6136
6168
6144
6176
6168
6200
6176
6152
6184
6176
6184
6168
6192
6192
6208
6192
6224
6232
6192
6200
6216
6224
6224
6232
6224
6272
6264
6248
6248
6272
6256
6288
6272
6296
6312
6272
6280
6264
6312
6288
6304
6272
6288
6264
6208
6208
6224
6216
6240
6192
6208
6192
6208
6192
6200
6192
6168
6176
6160
6160
6176
6200
6176
6184
6168
6176
6216
6192
6192
6176
6200
6184
6176
6216
6200
6184
6184
6200
6184
6232
6232
6232
6200
6224
6224
6232
6208
6240
6224
6256
6256
6248
6264
6280
6280
6240
6272
6248
6280
6288
6304
6304
6296
6288
6280
6272
6304
6280
6256
6288
6240
6232
6224
6192
6208
6184
6200
6192
6168
6200
6168
6160
6160
6160
6152
6168
6160
6144
6144
6136
6176
6176
6160
6152
6160
6152
6144
6168
6160
6136
6152
6160
6144
6160
6168
6184
6168
6224
6184
6192
6224
6208
6200
6240
6208
6200
6216
6216
6192
6224
6232
6248
6240
6232
6248
6272
6232
6272
6272
6256
6240
6248
6280
6296
6280
6248
6264
6240
6288
6248
6232
6232
6168
6184
6184
6168
6160
6176
6136
6144
6120
6096
6096
6088
6096
6104
6104
6056
6104
6096
6104
6080
6072
6064
6096
6104
6088
6104
6120
6104
6104
6120
6112
6096
6128
6136
6112
6120
6136
6152
6144
6168
6168
6200
6184
6184
6184
6152
6192
6192
6208
6184
6192
6168
6216
6232
6208
6224
6216
6232
6224
6240
6256
6224
6240
6224
6248
6248
6232
6208
6184
6200
6200
6184
6160
6152
6128
6144
6136
6096
6080
6112
6096
6120
6096
6096
6096
6104
6104
6104
6120
6080
6104
6104
6096
6112
6128
6136
6104
6120
6160
6120
6112
6168
6152
6112
6144
6136
6128
6152
6192
6152
6152
6160
6160
6160
6192
6168
6216
6192
6184
6208
6192
6240
6208
6216
6208
6208
6224
6224
6208
6240
6240
6232
6256
6224
6160
6184
6192
6152
6168
6136
6144
6104
6160
6120
6112
6080
6048
6096
6096
6096
6104
6096
6080
6096
6072
6136
6096
6096
6072
6104
6072
6080
6072
6104
6104
6072
6072
6104
6064
6088
6064
6104
6136
6104
6096
6128
6136
6128
6120
6120
6160
6096
6104
6136
6144
6144
6160
6168
6152
6192
6168
6160
6144
6168
6168
6208
6176
6160
6176
6128
6112
6080
6080
6080
6072
6048
6056
6048
6040
6032
6056
6032
6016
6016
5984
6016
6024
6024
6024
6032
6008
6040
6040
6040
6000
6056
6024
6040
6064
6080
6032
6064
6072
6056
6080
6088
6080
6072
6088
6104
6096
6112
6120
6104
6120
6128
6096
6112
6112
6152
6168
6168
6144
6168
6120
6152
6144
6160
6152
6184
6160
6192
6184
6216
6192
6192
6200
6216
6240
6216
6224
6224
6192
6224
6184
6192
6160
6144
6136
6096
6112
6056
6088
6072
6072
6080
6040
6032
6064
6024
6040
6064
6040
6040
6048
6056
6032
6048
6056
6064
6056
6048
6048
6080
6096
6088
6088
6064
6056
6064
6088
6096
6120
6088
6096
6104
6104
6088
6104
6120
6120
6144
6136
6120
6144
6128
6112
6152
6136
6192
6160
6184
6168
6144
6144
6192
6160
6144
6176
6176
6176
6224
6168
6192
6208
6192
6184
6192
6200
6184
6176
6168
6128
6104
6112
6088
6072
6088
6072
6040
6056
6048
6056
6040
6056
6024
6032
6048
6072
6040
6056
6056
6056
6056
6072
6056
6072
6088
6056
6064
6072
6072
6080
6104
6064
6072
6104
6088
6112
6104
6120
6112
6120
6128
6128
6144
6136
6144
6120
6144
6128
6128
6128
6144
6168
6152
6184
6168
6152
6168
6192
6168
6192
6168
6184
6160
6168
6152
6112
6096
6072
6032
6024
6008
6008
6000
6008
6024
6000
6024
6008
5976
5992
5984
5984
5968
5976
6016
5992
6000
6008
6024
5976
6008
5984
5984
6016
6024
6032
6016
6016
6032
6056
6048
6032
6032
6056
6040
6056
6056
6096
6088
6064
6104
6088
6088
6096
6112
6088
6128
6120
6128
6120
6104
6104
6152
6176
6120
6144
6184
6200
6192
6184
6168
6152
6152
6120
6104
6120
6128
6104
6120
6120
6088
6120
6104
6112
6120
6136
6136
6112
6144
6136
6152
6144
6104
6120
6176
6152
6136
6120
6144
6160
6168
6168
6176
6168
6160
6200
6168
6192
6168
6200
6208
6208
6216
6224
6184
6192
6192
6208
6224
6192
6240
6232
6240
6232
6240
6256
6240
6280
6224
6248
6264
6256
6288
6264
6272
6296
6312
6296
6296
6296
6320
6304
6320
6304
6320
6312
6320
6304
6304
6312
6288
6272
6240
6232
6224
6224
6208
6208
6216
6184
6184
6200
6208
6168
6176
6136
6160
6152
6160
6176
6176
6176
6160
6160
6136
6160
6152
6176
6152
6192
6176
6184
6160
6168
6176
6208
6216
6192
6200
6200
6200
6208
6232
6224
6208
6216
6192
6192
6208
6208
6224
6232
6256
6232
6272
6256
6256
6248
6256
6264
6280
6272
6256
6248
6264
6280
6280
6264
6296
6280
6272
6320
6224
6224
6272
6192
6200
6208
6152
6168
6152
6120
6152
6120
6152
6120
6096
6096
6104
6104
6128
6120
6152
6128
6144
6136
6112
6128
6144
6160
6136
6144
6120
6144
6168
6136
6208
6168
6168
6192
6192
6184
6192
6200
6176
6208
6184
6200
6208
6208
6192
6200
6184
6200
6192
6200
6216
6200
6232
6232
6256
6224
6232
6232
6232
6224
6232
6240
6232
6200
6208
6224
6152
6160
6144
6128
6096
6064
6080
6064
6056
6048
6056
6080
6064
6048
6064
6080
6056
6056
6080
6096
6088
6080
6064
6096
6096
6080
6088
6088
6072
6096
6064
6112
6088
6104
6096
6088
6088
6096
6120
6120
6104
6120
6112
6168
6136
6144
6152
6120
6168
6152
6200
6192
6184
6168
6192
6224
6208
6208
6224
6240
6240
6224
6216
6184
6144
6112
6104
6104
6088
6112
6080
6056
6056
6040
6056
6024
6032
6016
6000
6032
6016
6016
6032
6000
6024
6032
6040
6024
6016
6024
6008
6016
6008
6024
6064
6024
6056
6048
6056
6056
6072
6048
6056
6064
6064
6056
6064
6088
6080
6072
6128
6088
6080
6112
6080
6088
6080
6104
6112
6120
6112
6104
6104
6128
6136
6136
6120
6136
6160
6112
6144
6112
6072
6040
6016
5992
5992
5968
5960
5968
5928
5920
5920
5896
5904
5912
5904
5936
5912
5904
5912
5904
5936
5960
5968
5952
5944
5944
5936
5952
5952
5960
5936
5976
5960
5952
5992
5968
5952
5976
5976
5984
5984
6040
5984
6024
6016
6008
6008
6016
6048
6016
6024
6048
6048
6056
6040
6024
6064
6056
6056
6072
6072
6072
6064
6104
6080
6096
6112
6056
6064
6048
6048
6032
5984
5968
5904
5952
5936
5904
5904
5936
5904
5928
5880
5864
5888
5896
5912
5920
5912
5904
5936
5928
5904
5904
5904
5912
5904
5928
5936
5968
5912
5960
5944
5952
5944
5952
5960
5992
5992
5984
5968
5984
6000
6008
6016
6016
6016
6040
6024
6032
6064
6040
6024
6048
6048
6056
6072
6072
6080
6080
6080
6064
6096
6064
6088
6112
6064
6088
6016
6008
5960
5944
5968
5936
5928
5896
5912
5920
5920
5880
5912
5880
5896
5920
5920
5936
5952
5944
5968
5952
5944
5952
5944
5960
5944
5960
5976
5968
6008
5992
6008
5960
5992
6024
5992
6024
6016
6016
6032
6056
6048
6056
6016
6032
6048
6064
6048
6072
6064
6048
6080
6088
6056
6120
6088
6096
6088
6064
6040
6024
5976
5968
5928
5928
5944
5912
5896
5888
5896
5896
5848
5880
5880
5872
5896
5872
5896
5904
5928
5912
5912
5880
5912
5936
5960
5936
5944
5936
5928
5936
5928
5984
5984
5944
5944
5968
5952
5976
5976
5984
6000
5992
5984
6008
6000
6008
6008
6024
6064
6056
6032
6040
6008
6040
6032
6064
6040
6080
6048
6072
6064
6040
6008
5984
5952
5960
5904
5896
5928
5896
5880
5888
5856
5896
5880
5864
5864
5888
5888
5904
5920
5904
5944
5904
5920
5928
5936
5936
5952
5936
5952
5904
5984
5936
5968
5976
5984
5960
5984
6008
5976
6016
6000
6024
6008
6008
6016
5992
6040
6048
6064
6032
6040
6024
6024
6056
6048
6080
6088
6048
6088
6096
6080
6096
6104
6104
6128
6088
6112
6096
6136
6136
6088
6096
6072
6024
6008
5968
6000
5976
5992
6008
5976
5944
5968
5960
5960
5952
5944
5928
5952
5936
5976
6000
6000
5984
5976
5984
5976
5984
6008
6008
6000
6024
6016
5992
6032
6008
6024
6008
6040
6032
6048
6032
6040
6064
6056
6016
6080
6040
6040
6088
6096
6048
6072
6088
6056
6120
6096
6080
6104
6128
6120
6120
6136
6136
6112
6096
6120
6096
6088
6072
6040
6040
5976
6008
6016
5976
6008
5968
5952
5952
6000
5944
5952
5952
5968
5984
5976
5984
5960
6000
6000
5992
5968
6008
6008
6008
6040
5992
6040
6008
6032
6000
6016
6040
6040
6056
6032
6072
6056
6056
6056
6064
6072
6064
6064
6072
6072
6064
6080
6080
6064
6056
6080
6112
6104
6136
6088
6152
6152
6176
6144
6144
6104
6096
6160
6112
6152
6120
6064
6080
6072
6008
6040
6040
5976
5992
5992
5960
5984
5968
5960
5960
5976
5976
5984
5992
6008
6008
6008
6000
6008
6024
6000
6024
6032
6016
6024
6024
6008
6032
6040
6032
6064
6032
6040
6064
6072
6080
6040
6088
6072
6056
6104
6128
6128
6104
6112
6104
6144
6152
6112
6120
6112
6176
6136
6136
6128
6184
6176
6168
6176
6192
6176
6184
6184
6176
6184
6200
6192
6192
6224
6232
6216
6176
6176
6184
6160
6144
6136
6128
6120
6120
6112
6104
6096
6104
6096
6064
6088
6096
6104
6080
6096
6104
6072
6080
6104
6104
6120
6088
6136
6096
6128
6144
6112
6128
6144
6128
6168
6168
6176
6168
6128
6168
6168
6168
6176
6192
6176
6184
6192
6192
6192
6192
6200
6184
6232
6208
6216
6232
6240
6232
6240
6248
6248
6240
6256
6240
6264
6256
6248
6288
6256
6272
6288
6288
6272
6296
6264
6264
6288
6272
6264
6248
6224
6224
6216
6216
6224
6224
6184
6192
6184
6192
6192
6200
6168
6176
6160
6216
6224
6208
6208
6200
6192
6192
6168
6200
6216
6200
6208
6208
6216
6200
6216
6224
6240
6224
6216
6232
6248
6216
6248
6256
6248
6232
6264
6256
6264
6280
6256
6264
6280
6272
6296
6288
6312
6280
6280
6296
6264
6312
6320
6288
6328
6328
6296
6304
6312
6296
6296
6264
6264
6256
6240
6232
6240
6232
6248
6240
6208
6208
6184
6184
6192
6240
6200
6208
6200
6208
6168
6192
6208
6208
6176
6192
6184
6184
6208
6184
6208
6216
6224
6208
6216
6232
6248
6248
6208
6240
6208
6224
6216
6248
6256
6264
6256
6240
6272
6264
6288
6240
6296
6272
6296
6264
6320
6264
6256
6288
6320
6288
6320
6296
6336
6296
6296
6296
6312
6240
6256
6224
6200
6200
6216
6192
6200
6184
6184
6168
6160
6168
6168
6168
6136
6136
6120
6144
6128
6144
6136
6112
6120
6144
6144
6144
6136
6160
6176
6184
6144
6144
6168
6168
6176
6160
6160
6152
6200
6168
6176
6184
6176
6232
6192
6168
6184
6216
6208
6200
6200
6168
6216
6200
6216
6200
6216
6240
6240
6248
6208
6224
6240
6248
6232
6248
6200
6216
6200
6152
6120
6152
6104
6136
6120
6096
6056
6064
6048
6040
6088
6056
6032
6040
6016
6040
6024
6056
6032
6016
6032
6024
6072
6024
6056
6072
6056
6064
6064
6056
6040
6080
6088
6080
6104
6072
6096
6072
6088
6088
6104
6088
6112
6104
6112
6096
6112
6136
6112
6144
6128
6128
6136
6128
6144
6144
6128
6136
6152
6176
6144
6168
6120
6144
6136
6096
6088
6072
6056
6088
6016
6016
6008
6024
5992
5992
5952
5960
5976
5944
5968
5960
5976
5992
5952
5976
5984
5960
5976
5984
6016
5968
5984
6000
5992
6000
6000
5984
6000
6048
6024
6024
6024
6016
6032
6072
6040
6056
6064
6040
6088
6056
6072
6088
6088
6104
6088
6088
6104
6080
6120
6112
6080
6072
6128
6120
6128
6096
6136
6152
6120
6096
6112
6096
6072
6024
6016
6000
5984
5960
6000
5984
5960
5968
5920
5944
5936
5960
5984
5944
5968
5960
5968
5984
5984
5944
5984
5984
5992
6008
5984
6000
5992
6000
6024
6008
6032
6024
6024
6048
6048
6088
6064
6048
6064
6056
6040
6064
6080
6072
6120
6088
6096
6104
6120
6104
6072
6128
6104
6104
6128
6136
6128
6120
6160
6136
6144
6136
6096
6096
6104
6024
6032
6000
5952
5968
5968
5952
5944
5960
5984
5952
5952
5960
5944
5976
5944
5960
5984
5976
5984
5960
5936
5960
5984
5944
5984
5968
5960
5976
6000
5992
6008
6032
6032
6016
6024
6032
6048
6024
6024
6056
6048
6032
6072
6064
6048
6064
6064
6056
6088
6096
6096
6088
6088
6088
6088
6096
6088
6104
6112
6120
6120
6096
6096
6120
6072
6008
5960
5984
5928
5976
5928
5936
5920
5928
5896
5896
5912
5880
5920
5936
5936
5904
5976
5952
5952
5960
5976
5952
5968
5976
5952
5976
5968
5960
5984
5968
6024
6000
6000
6000
6032
5992
6024
6016
6024
6032
6024
6048
6032
6056
6048
6048
6072
6056
6080
6032
6048
6088
6056
6072
6088
6112
6088
6096
6080
6120
6096
6136
6120
6096
6080
6032
5984
5984
5952
5952
5912
5936
5952
5920
5896
5888
5928
5888
5896
5904
5936
5920
5936
5904
5928
5944
5920
5968
5936
5952
5920
5960
5936
5960
5928
5952
5984
5944
6000
5992
5968
5960
5984
6000
6008
6024
6008
6008
5992
6000
6032
6000
6016
6024
6040
6016
6048
6056
6056
6032
6080
6064
6056
6088
6080
6088
6096
6128
6104
6064
6080
6000
6000
5944
5920
5928
5928
5928
5912
5920
5912
5896
5880
5864
5912
5912
5904
5912
5912
5928
5936
5920
5920
5936
5936
5952
5904
5944
5952
5952
5968
5984
5968
5992
6000
5968
5984
5976
6000
6016
6032
6008
6016
6016
6008
6032
6016
6040
6016
6008
6032
6024
6056
6048
6024
6032
6056
6048
6064
6040
6064
6056
6048
6048
6056
6040
6000
5968
5920
5904
5928
5888
5864
5848
5904
5840
5856
5856
5856
5864
5832
5856
5840
5888
5872
5880
5880
5904
5880
5880
5896
5920
5888
5880
5920
5864
5920
5952
5912
5928
5944
5960
5936
5960
5952
5960
5984
5976
6000
5968
5984
6000
6040
6000
6016
6000
6016
6016
6000
6032
6024
6032
6040
6024
6048
6064
6072
6096
6080
6056
6016
6024
5976
5944
5928
5936
5872
5896
5848
5888
5856
5872
5872
5832
5824
5848
5880
5840
5856
5848
5856
5888
5888
5888
5888
5896
5904
5904
5904
5912
5928
5952
5952
5944
5976
5960
5944
5984
5936
5968
5968
5984
5944
5976
6016
5984
5992
5992
6000
5992
6008
6024
5992
6024
6032
6040
6048
6040
6032
6048
6040
6072
6056
6056
6056
6064
6072
6064
6088
6072
6048
6008
5976
5912
5944
5936
5912
5904
5872
5888
5896
5880
5832
5872
5872
5896
5880
5872
5880
5896
5904
5896
5904
5896
5896
5904
5880
5896
5920
5936
5912
5928
5952
5960
5968
5928
5928
5952
5968
5976
5960
5968
5976
5976
5976
5976
6016
5992
6016
5968
6024
6000
6000
6024
6008
6040
6024
6024
6048
6032
6024
6040
6008
6016
5984
5912
5912
5872
5872
5864
5840
5840
5864
5864
5824
5840
5824
5784
5840
5840
5848
5840
5824
5856
5848
5848
5872
5856
5840
5904
5872
5872
5888
5888
5904
5888
5904
5912
5936
5912
5936
5928
5960
5952
5944
5944
5936
5968
5968
5976
5968
5944
5976
5976
5984
5984
5992
5976
5984
6016
5992
6024
5984
6000
6008
6008
6016
6032
6024
6032
6000
5952
5936
5912
5880
5856
5824
5832
5792
5832
5816
5792
5792
5792
5784
5784
5800
5784
5800
5832
5848
5824
5848
5824
5840
5832
5856
5832
5848
5864
5848
5880
5864
5872
5856
5896
5888
5896
5864
5888
5912
5912
5928
5944
5928
5928
5968
5928
5936
5976
5920
5960
5968
5976
5952
5952
5984
5936
5992
5992
5968
5984
5992
5976
6000
6032
6048
5992
6032
6016
6000
5968
5944
5936
5912
5872
5832
5832
5824
5792
5832
5792
5792
5784
5792
5808
5800
5800
5816
5816
5808
5824
5832
5840
5832
5840
5816
5824
5840
5832
5864
5848
5824
5856
5856
5832
5856
5880
5848
5856
5896
5888
5872
5888
5888
5904
5904
5920
5920
5920
5920
5928
5928
5912
5952
5904
5952
5952
5936
5968
5968
5976
5984
5952
5960
6008
5968
6008
5992
5992
5992
6024
5976
5976
5920
5944
5864
5872
5824
5824
5816
5808
5792
5808
5776
5808
5768
5792
5800
5776
5784
5808
5800
5816
5816
5824
5792
5808
5840
5832
5816
5840
5848
5832
5856
5824
5872
5888
5864
5864
5880
5888
5904
5896
5880
5936
5896
5928
5920
5920
5920
5912
5912
5912
5912
5968
5920
5952
5960
5952
5936
5952
5952
5976
5976
5912
5896
5856
5832
5776
5784
5776
5760
5760
5768
5728
5760
5712
5736
5736
5720
5744
5744
5792
5736
5752
5784
5760
5784
5752
5744
5752
5768
5760
5784
5792
5792
5824
5808
5808
5808
5816
5800
5824
5792
5800
5824
5800
5808
5840
5848
5824
5888
5848
5872
5856
5888
5888
5848
5880
5888
5904
5872
5888
5920
5928
5904
5896
5896
5912
5920
5872
5864
5832
5840
5824
5760
5728
5744
5744
5752
5728
5704
5712
5680
5672
5704
5672
5704
5680
5704
5704
5720
5744
5728
5744
5760
5752
5776
5752
5776
5752
5752
5768
5776
5792
5832
5808
5792
5808
5824
5840
5792
5800
5832
5840
5832
5864
5856
5864
5840
5880
5872
5888
5864
5912
5872
5880
5872
5864
5928
5904
5888
5912
5920
5936
5928
5936
5928
5944
5936
5952
5904
5888
5832
5784
5800
5776
5752
5736
5736
5728
5712
5688
5688
5688
5704
5704
5704
5704
5704
5728
5752
5720
5720
5728
5720
5736
5728
5744
5752
5728
5760
5760
5768
5768
5800
5792
5792
5792
5816
5824
5776
5824
5808
5832
5808
5840
5832
5832
5840
5864
5848
5848
5864
5856
5864
5872
5872
5840
5896
5896
5856
5856
5848
5840
5792
5760
5744
5744
5696
5728
5704
5672
5704
5688
5696
5696
5664
5672
5680
5640
5680
5680
5688
5696
5696
5688
5736
5704
5752
5696
5728
5752
5744
5744
5752
5768
5760
5800
5792
5800
5784
5816
5808
5808
5840
5824
5824
5840
5832
5800
5848
5880
5840
5832
5864
5856
5864
5848
5856
5856
5856
5912
5896
5896
5896
5872
5896
5904
5920
5904
5864
5808
5816
5744
5736
5736
5736
5688
5704
5680
5704
5712
5656
5664
5664
5672
5680
5704
5696
5712
5728
5720
5744
5760
5696
5752
5720
5736
5728
5768
5736
5752
5784
5768
5776
5768
5800
5808
5784
5792
5784
5784
5840
5808
5824
5824
5816
5840
5816
5824
5800
5840
5824
5824
5848
5832
5824
5840
5840
5832
5864
5880
5896
5856
5840
5864
5856
5872
5848
5840
5856
5832
5800
5760
5736
5712
5688
5688
5648
5680
5688
5656
5664
5632
5640
5648
5648
5656
5672
5688
5688
5704
5688
5712
5720
5696
5696
5704
5704
5712
5712
5736
5744
5720
5744
5744
5744
5776
5776
5752
5792
5784
5784
5792
5800
5776
5784
5816
5824
5840
5816
5816
5800
5800
5816
5800
5840
5800
5832
5800
5832
5792
5816
5816
5832
5800
5816
5792
5752
5728
5704
5712
5672
5664
5632
5648
5608
5640
5608
5600
5592
5600
5592
5584
5616
5608
5632
5624
5632
5632
5632
5656
5656
5672
5680
5688
5688
5680
5680
5704
5696
5696
5712
5696
5752
5744
5720
5744
5752
5752
5752
5752
5720
5768
5752
5760
5760
5784
5760
5792
5776
5784
5808
5824
5808
5824
5824
5832
5832
5816
5840
5840
5808
5848
5808
5848
5816
5784
5768
5712
5712
5680
5632
5656
5640
5632
5624
5624
5608
5656
5608
5616
5640
5664
5672
5656
5624
5672
5696
5672
5672
5648
5648
5688
5712
5712
5688
5696
5712
5728
5720
5712
5744
5752
5728
5752
5752
5752
5784
5800
5760
5752
5752
5792
5792
5816
5816
5800
5808
5808
5816
5848
5840
5824
5848
5816
5832
5848
5840
5848
5848
5824
5832
5816
5736
5712
5688
5680
5640
5664
5672
5656
5680
5648
5656
5624
5608
5656
5656
5640
5656
5656
5656
5712
5664
5688
5672
5688
5672
5656
5696
5680
5712
5720
5720
5720
5728
5744
5720
5728
5760
5776
5752
5736
5760
5776
5768
5760
5768
5768
5784
5800
5824
5824
5816
5792
5800
5784
5832
5840
5832
5832
5832
5832
5848
5832
5768
5736
5712
5704
5680
5664
5640
5672
5616
5640
5648
5632
5632
5616
5592
5640
5584
5632
5600
5648
5656
5648
5648
5656
5656
5648
5672
5672
5696
5688
5664
5712
5656
5720
5696
5696
5704
5704
5744
5720
5728
5744
5736
5728
5736
5736
5736
5776
5744
5776
5784
5784
5744
5736
5768
5784
5736
5776
5784
5792
5768
5808
5792
5792
5800
5784
5776
5712
5672
5648
5640
5616
5600
5616
5592
5592
5568
5608
5600
5568
5576
5600
5600
5584
5600
5616
5592
5648
5640
5648
5600
5648
5680
5664
5656
5656
5656
5696
5672
5712
5712
5712
5720
5704
5720
5736
5728
5752
5744
5744
5744
5760
5744
5768
5776
5752
5760
5752
5776
5792
5784
5792
5800
5768
5784
5808
5816
5800
5824
5824
5808
5800
5832
5832
5832
5824
5768
5752
5744
5680
5672
5608
5640
5624
5624
5576
5616
5592
5608
5568
5568
5576
5584
5600
5608
5608
5592
5592
5592
5600
5568
5624
5584
5592
5624
5624
5608
5656
5648
5664
5664
5656
5648
5680
5680
5680
5680
5704
5680
5672
5680
5672
5696
5712
5704
5712
5712
5728
5736
5728
5752
5728
5736
5736
5752
5768
5768
5760
5744
5752
5736
5720
5712
5680
5656
5600
5600
5592
5608
5624
5576
5592
5584
5584
5576
5592
5584
5584
5600
5608
5608
5616
5648
5656
5624
5632
5632
5608
5656
5680
5640
5664
5680
5648
5672
5704
5672
5688
5688
5688
5720
5720
5688
5728
5728
5720
5728
5728
5752
5760
5736
5784
5768
5760
5736
5768
5784
5752
5768
5784
5800
5800
5768
5768
5768
5720
5704
5656
5664
5648
5600
5600
5576
5584
5592
5584
5576
5576
5592
5552
5560
5520
5584
5568
5592
5592
5576
5600
5592
5600
5632
5584
5632
5616
5624
5624
5640
5648
5640
5656
5656
5672
5720
5696
5672
5696
5688
5704
5712
5704
5720
5704
5728
5744
5736
5720
5760
5744
5736
5744
5760
5760
5776
5736
5784
5776
5768
5760
5760
5792
5800
5808
5784
5808
5784
5728
5720
5704
5664
5640
5640
5624
5584
5568
5608
5600
5632
5608
5600
5600
5560
5568
5584
5584
5600
5616
5608
5616
5616
5624
5616
5624
5608
5648
5624
5624
5624
5624
5672
5648
5680
5656
5688
5688
5680
5696
5688
5704
5672
5696
5712
5728
5720
5720
5728
5744
5728
5720
5728
5728
5760
5712
5736
5752
5768
5784
5768
5776
5776
5784
5784
5808
5776
5824
5792
5768
5728
5744
5704
5680
5672
5648
5648
5688
5616
5608
5608
5616
5616
5592
5584
5592
5632
5616
5624
5640
5664
5648
5672
5656
5648
5664
5664
5656
5648
5680
5672
5704
5704
5712
5728
5720
5736
5720
5712
5728
5760
5768
5768
5760
5744
5744
5784
5776
5792
5760
5784
5808
5800
5808
5816
5792
5792
5816
5800
5832
5848
5808
5848
5856
5840
5816
5832
5768
5768
5736
5736
5704
5656
5688
5664
5672
5624
5632
5624
5608
5608
5632
5616
5616
5640
5640
5632
5640
5648
5632
5672
5640
5656
5688
5664
5664
5680
5648
5664
5704
5672
5688
5704
5704
5688
5720
5728
5712
5744
5720
5736
5752
5728
5736
5720
5712
5736
5736
5744
5736
5720
5776
5736
5736
5736
5760
5768
5776
5800
5792
5784
5776
5776
5776
5752
5704
5704
5696
5656
5616
5624
5632
5624
5632
5608
5560
5576
5592
5584
5592
5600
5576
5584
5576
5608
5632
5624
5664
5624
5656
5648
5640
5632
5656
5640
5632
5624
5656
5664
5664
5664
5672
5680
5688
5680
5704
5704
5688
5720
5712
5704
5728
5696
5752
5712
5728
5752
5760
5776
5776
5760
5744
5744
5760
5792
5744
5776
5792
5792
5808
5808
5800
5792
5792
5760
5728
5728
5712
5680
5664
5656
5624
5632
5608
5616
5608
5568
5552
5584
5576
5576
5568
5584
5584
5560
5608
5624
5600
5592
5600
5648
5656
5632
5616
5648
5640
5640
5632
5648
5648
5640
5648
5680
5688
5680
5680
5704
5720
5680
5712
5712
5680
5720
5696
5704
5744
5696
5712
5704
5728
5696
5768
5752
5736
5768
5728
5760
5744
5728
5752
5776
5784
5760
5728
5728
5672
5664
5632
5624
5600
5632
5592
5592
5608
5568
5576
5608
5632
5624
5568
5584
5584
5592
5600
5600
5616
5632
5608
5608
5616
5624
5640
5624
5664
5624
5664
5656
5656
5624
5664
5656
5664
5664
5672
5672
5696
5704
5680
5688
5672
5704
5712
5712
5696
5720
5720
5704
5728
5768
5752
5760
5792
5768
5760
5792
5752
5760
5728
5760
5696
5696
5664
5632
5576
5608
5552
5568
5560
5576
5552
5544
5544
5528
5536
5528
5536
5536
5600
5592
5584
5608
5608
5600
5608
5616
5592
5616
5624
5624
5632
5608
5632
5640
5640
5648
5672
5672
5688
5664
5680
5696
5664
5664
5728
5680
5688
5712
5680
5696
5688
5696
5680
5720
5736
5720
5736
5728
5744
5744
5744
5752
5720
5776
5752
5776
5744
5776
5768
5728
5688
5680
5664
5632
5592
5600
5608
5584
5608
5592
5576
5576
5568
5568
5560
5584
5568
5600
5592
5624
5624
5616
5624
5616
5656
5640
5648
5608
5648
5648
5648
5664
5680
5688
5688
5680
5704
5704
5720
5680
5696
5720
5720
5720
5712
5728
5736
5720
5728
5760
5776
5760
5776
5784
5776
5784
5768
5792
5792
5792
5792
5800
5768
5760
5720
5704
5672
5656
5624
5624
5608
5632
5592
5616
5600
5632
5600
5600
5608
5648
5632
5624
5640
5656
5640
5632
5648
5656
5664
5640
5680
5688
5688
5680
5704
5672
5704
5704
5728
5720
5744
5760
5728
5704
5752
5784
5736
5768
5784
5760
5752
5792
5776
5768
5784
5768
5768
5776
5800
5808
5792
5792
5784
5768
5792
5760
5776
5704
5696
5688
5664
5672
5664
5624
5616
5640
5624
5640
5616
5632
5640
5664
5632
5656
5688
5672
5688
5680
5688
5704
5688
5672
5688
5688
5712
5760
5760
5720
5728
5752
5752
5760
5752
5768
5784
5768
5784
5768
5792
5816
5832
5824
5824
5824
5816
5848
5856
5872
5848
5856
5888
5896
5880
5848
5848
5872
5856
5840
5864
5824
5808
5744
5768
5760
5776
5696
5760
5744
5712
5720
5712
5728
5696
5712
5680
5744
5736
5752
5736
5760
5752
5784
5752
5760
5808
5792
5776
5800
5768
5808
5832
5808
5800
5848
5832
5848
5824
5872
5824
5864
5896
5856
5864
5872
5848
5872
5904
5872
5888
5896
5912
5896
5944
5896
5936
5952
5928
5944
5936
5912
5920
5952
5944
5976
5928
5976
5936
5960
5944
5968
5952
5960
5936
5912
5872
5896
5840
5864
5824
5840
5832
5832
5808
5792
5824
5768
5840
5792
5792
5832
5848
5872
5840
5856
5856
5848
5856
5856
5896
5832
5888
5888
5880
5928
5888
5920
5920
5928
5912
5928
5928
5912
5920
5904
5888
5944
5936
5936
5944
5936
5968
5936
5992
5944
5936
5952
5960
5968
5976
5960
5960
6000
6016
5968
6008
6024
6000
6000
6024
6000
6032
5992
5992
6024
6008
6024
6032
6016
6000
6008
5992
5992
6000
5992
5960
5936
5928
5896
5888
5904
5904
5864
5848
5864
5864
5888
5896
5896
5880
5912
5896
5856
5904
5872
5888
5888
5904
5912
5904
5896
5896
5896
5912
5936
5928
5928
5928
5952
5896
5952
5928
5952
5936
5920
5984
5968
5960
5976
5952
5944
5968
6000
5976
5984
5992
5976
5960
6000
5984
6000
5984
6016
6024
6016
6000
6024
6032
6040
6040
6016
6072
6064
6016
6008
6008
5968
5968
5944
5952
5936
5896
5928
5880
5856
5864
5856
5872
5832
5880
5872
5856
5848
5864
5888
5880
5848
5840
5904
5864
5880
5880
5848
5864
5880
5872
5904
5880
5920
5896
5904
5904
5912
5912
5912
5888
5928
5904
5912
5936
5944
5928
5936
5944
5944
5936
5960
5968
5984
5968
5968
5968
6008
5992
5992
5992
6016
6008
5992
6016
6000
6000
6024
6000
6016
6024
6016
6024
5984
6016
5968
5960
5912
5928
5896
5856
5848
5856
5800
5832
5824
5800
5792
5800
5800
5800
5800
5816
5824
5824
5840
5856
5832
5848
5824
5832
5832
5824
5864
5840
5848
5840
5880
5816
5856
5848
5864
5848
5840
5880
5872
5864
5864
5856
5912
5904
5912
5920
5920
5904
5896
5912
5936
5920
5928
5936
5944
5944
5952
5928
5928
5952
5944
5952
5960
5976
5976
5936
5992
5968
5968
5984
5960
6016
5992
5952
5976
5984
5984
5936
5928
5872
5872
5856
5808
5840
5808
5808
5824
5792
5792
5792
5752
5752
5760
5776
5792
5792
5792
5808
5776
5784
5800
5800
5832
5792
5792
5800
5832
5800
5800
5864
5816
5824
5840
5832
5864
5864
5864
5856
5856
5872
5848
5880
5872
5896
5880
5864
5928
5864
5896
5904
5912
5912
5920
5920
5912
5928
5936
5912
5936
5944
5952
5928
5944
5928
5968
5968
5968
5936
5960
5944
5920
5864
5832
5816
5800
5768
5760
5776
5736
5768
5720
5744
5736
5728
5736
5728
5728
5672
5720
5720
5768
5728
5760
5728
5760
5736
5744
5752
5768
5760
5760
5776
5760
5736
5760
5792
5800
5808
5808
5808
5784
5808
5848
5816
5832
5832
5840
5848
5840
5832
5832
5880
5880
5872
5904
5840
5848
5856
5912
5912
5912
5888
5896
5880
5912
5920
5904
5944
5936
5936
5904
5880
5864
5856
5832
5784
5752
5760
5728
5712
5760
5744
5696
5712
5736
5712
5688
5712
5696
5720
5696
5680
5720
5720
5752
5744
5720
5736
5728
5768
5728
5752
5768
5744
5760
5808
5792
5792
5776
5800
5800
5816
5816
5832
5824
5824
5808
5824
5824
5840
5840
5832
5832
5840
5856
5856
5864
5856
5888
5864
5856
5856
5880
5872
5920
5928
5912
5904
5896
5920
5920
5936
5936
5888
5864
5848
5856
5816
5768
5784
5720
5744
5688
5728
5728
5728
5696
5744
5704
5688
5664
5680
5680
5704
5680
5704
5728
5720
5704
5744
5712
5728
5728
5760
5736
5760
5768
5768
5792
5760
5752
5808
5784
5784
5792
5800
5816
5768
5824
5800
5848
5816
5816
5824
5832
5832
5816
5808
5832
5856
5864
5848
5840
5872
5864
5840
5880
5888
5880
5880
5888
5896
5896
5896
5896
5904
5880
5872
5848
5808
5776
5760
5760
5728
5680
5704
5712
5680
5720
5688
5704
5656
5680
5680
5688
5744
5704
5720
5712
5736
5728
5728
5712
5744
5752
5736
5752
5768
5752
5720
5768
5744
5752
5752
5792
5824
5784
5808
5776
5792
5824
5808
5784
5832
5848
5816
5848
5832
5800
5856
5864
5856
5840
5816
5848
5880
5856
5864
5864
5896
5880
5832
5808
5768
5728
5712
5720
5704
5704
5696
5688
5672
5688
5696
5648
5656
5656
5688
5672
5664
5688
5720
5688
5680
5696
5712
5696
5704
5712
5704
5696
5744
5760
5728
5776
5760
5760
5768
5776
5784
5784
5784
5768
5776
5808
5816
5792
5824
5824
5816
5856
5840
5832
5856
5840
5832
5848
5880
5832
5872
5848
5864
5848
5880
5880
5872
5880
5848
5848
5872
5832
5784
5752
5760
5728
5672
5680
5680
5664
5664
5632
5672
5664
5624
5624
5616
5656
5648
5680
5640
5672
5680
5688
5672
5680
5704
5696
5696
5688
5696
5688
5704
5744
5752
5728
5736
5744
5760
5768
5776
5792
5776
5752
5776
5800
5800
5792
5784
5776
5792
5792
5816
5800
5800
5832
5800
5824
5840
5832
5832
5832
5824
5832
5840
5856
5848
5856
5848
5880
5824
5856
5856
5840
5808
5808
5728
5680
5696
5664
5632
5640
5640
5664
5648
5632
5640
5640
5624
5600
5592
5624
5648
5648
5656
5624
5664
5656
5640
5672
5648
5664
5672
5664
5672
5680
5704
5696
5704
5704
5720
5704
5688
5720
5744
5728
5728
5744
5712
5752
5744
5776
5736
5752
5776
5776
5752
5768
5768
5800
5776
5808
5816
5800
5792
5808
5832
5800
5808
5824
5856
5792
5848
5856
5856
5808
5816
5784
5776
5744
5728
5680
5704
5648
5640
5608
5640
5632
5648
5624
5616
5616
5608
5600
5608
5640
5640
5672
5648
5664
5672
5664
5672
5664
5680
5656
5672
5672
5688
5648
5664
5704
5688
5704
5736
5736
5720
5728
5736
5760
5720
5752
5696
5744
5752
5752
5760
5784
5760
5752
5776
5792
5808
5808
5776
5776
5768
5776
5808
5792
5800
5808
5800
5824
5776
5736
5744
5648
5640
5608
5616
5592
5616
5600
5592
5584
5560
5584
5576
5584
5584
5584
5592
5624
5632
5616
5648
5648
5648
5632
5640
5632
5640
5640
5624
5656
5664
5680
5680
5656
5672
5664
5680
5696
5688
5696
5704
5704
5704
5736
5728
5712
5712
5720
5736
5752
5752
5720
5744
5760
5752
5720
5752
5752
5744
5752
5808
5776
5792
5800
5784
5760
5768
5760
5744
5728
5656
5632
5640
5616
5584
5584
5576
5600
5576
5576
5560
5544
5528
5608
5576
5552
5576
5600
5584
5592
5616
5648
5648
5648
5584
5640
5656
5656
5648
5648
5664
5656
5672
5680
5672
5704
5688
5696
5680
5704
5704
5720
5752
5720
5728
5720
5752
5744
5752
5736
5776
5744
5760
5744
5768
5768
5760
5792
5776
5784
5800
5808
5784
5800
5792
5824
5784
5800
5792
5808
5784
5792
5728
5696
5672
5640
5632
5616
5608
5592
5592
5584
5584
5576
5600
5600
5576
5576
5592
5608
5632
5600
5624
5616
5648
5640
5640
5624
5640
5640
5664
5688
5688
5656
5688
5672
5712
5720
5736
5728
5704
5688
5736
5688
5744
5744
5728
5752
5712
5704
5752
5752
5752
5768
5776
5792
5776
5744
5768
5736
5776
5784
5776
5784
5816
5792
5744
5744
5712
5672
5600
5608
5608
5608
5560
5592
5584
5592
5600
5600
5568
5568
5624
5600
5624
5592
5600
5640
5624
5624
5608
5616
5624
5616
5632
5648
5664
5664
5664
5696
5688
5672
5648
5680
5680
5720
5680
5688
5728
5672
5736
5696
5712
5688
5736
5744
5752
5776
5760
5760
5784
5768
5768
5792
5752
5816
5768
5792
5784
5784
5784
5752
5744
5704
5672
5600
5616
5616
5608
5616
5608
5584
5584
5568
5536
5544
5568
5600
5592
5576
5592
5592
5616
5632
5584
5624
5624
5640
5648
5616
5664
5648
5624
5680
5640
5664
5680
5680
5664
5680
5680
5720
5688
5680
5712
5712
5728
5704
5728
5728
5712
5752
5736
5760
5736
5736
5752
5768
5768
5744
5784
5776
5784
5768
5752
5792
5784
5776
5728
5736
5712
5648
5632
5616
5576
5608
5576
5584
5600
5584
5576
5592
5560
5568
5600
5576
5592
5624
5624
5640
5600
5608
5616
5616
5656
5640
5640
5648
5640
5664
5640
5680
5664
5680
5672
5688
5704
5688
5704
5696
5736
5720
5744
5720
5752
5736
5704
5752
5728
5776
5784
5744
5744
5736
5752
5768
5760
5768
5736
5720
5728
5672
5680
5632
5624
5616
5608
5584
5544
5584
5568
5560
5544
5560
5560
5552
5536
5600
5584
5584
5584
5568
5592
5600
5600
5584
5584
5640
5608
5592
5600
5608
5624
5632
5632
5632
5648
5656
5648
5664
5640
5664
5680
5656
5656
5688
5672
5672
5688
5704
5672
5696
5704
5704
5744
5704
5744
5704
5696
5672
5656
5648
5632
5520
5536
5520
5520
5512
5528
5528
5496
5512
5512
5456
5520
5520
5552
5544
5568
5552
5568
5592
5560
5568
5536
5600
5584
5568
5600
5584
5592
5624
5616
5624
5616
5632
5640
5656
5632
5664
5640
5672
5664
5640
5664
5656
5664
5688
5712
5688
5712
5688
5672
5696
5696
5720
5744
5720
5752
5704
5744
5720
5648
5688
5600
5576
5560
5544
5560
5560
5536
5552
5576
5520
5512
5512
5544
5528
5512
5528
5568
5552
5576
5568
5584
5576
5600
5592
5592
5584
5640
5640
5616
5624
5640
5648
5664
5680
5672
5664
5664
5696
5696
5688
5688
5688
5680
5712
5688
5728
5712
5712
5768
5728
5744
5744
5768
5744
5728
5768
5760
5768
5752
5768
5784
5784
5784
5800
5760
5720
5712
5704
5672
5640
5632
5648
5616
5616
5632
5584
5616
5608
5584
5608
5600
5600
5640
5624
5608
5656
5624
5632
5656
5664
5648
5688
5680
5648
5672
5672
5688
5680
5688
5696
5704
5688
5680
5720
5704
5704
5744
5728
5752
5728
5728
5712
5744
5744
5768
5784
5768
5768
5760
5776
5800
5776
5792
5800
5800
5800
5848
5816
5792
5808
5824
5808
5816
5800
5808
5768
5776
5720
5736
5704
5688
5704
5696
5656
5704
5680
5672
5672
5688
5680
5696
5672
5688
5704
5712
5728
5720
5736
5720
5712
5720
5712
5744
5736
5744
5744
5736
5744
5744
5768
5752
5768
5768
5792
5792
5784
5808
5784
5776
5800
5808
5832
5832
5808
5808
5824
5848
5856
5848
5840
5840
5840
5840
5880
5864
5872
5864
5880
5856
5856
5824
5808
5784
5784
5760
5752
5704
5720
5720
5712
5720
5704
5680
5672
5680
5704
5688
5712
5720
5696
5688
5720
5704
5704
5744
5720
5736
5736
5752
5720
5760
5744
5768
5752
5792
5808
5816
5776
5776
5792
5816
5816
5800
5824
5832
5808
5800
5792
5832
5848
5848
5824
5840
5848
5896
5856
5864
5864
5880
5880
5896
5912
5888
5896
5896
5896
5896
5912
5880
5872
5840
5800
5792
5776
5744
5728
5728
5744
5704
5728
5704
5728
5688
5680
5680
5720
5704
5696
5728
5696
5752
5720
5712
5704
5744
5736
5752
5752
5736
5760
5760
5792
5744
5808
5776
5744
5808
5784
5808
5816
5784
5816
5840
5816
5832
5832
5848
5848
5848
5880
5856
5856
5888
5856
5872
5840
5880
5904
5896
5912
5928
5920
5896
5888
5872
5944
5904
5896
5920
5904
5904
5872
5888
5832
5840
5808
5768
5776
5752
5736
5728
5744
5712
5704
5704
5696
5744
5728
5736
5736
5768
5736
5728
5768
5768
5784
5768
5784
5784
5776
5736
5816
5768
5792
5800
5792
5808
5800
5824
5832
5824
5808
5848
5856
5848
5824
5856
5816
5840
5888
5848
5832
5888
5872
5872
5856
5880
5888
5896
5896
5880
5896
5888
5896
5880
5912
5912
5888
5888
5840
5808
5776
5736
5752
5720
5728
5712
5744
5696
5728
5720
5712
5720
5712
5696
5728
5712
5736
5720
5720
5728
5728
5712
5760
5760
5752
5736
5736
5728
5784
5776
5776
5776
5808
5784
5784
5792
5832
5784
5816
5832
5832
5824
5816
5808
5832
5840
5856
5856
5872
5880
5856
5880
5864
5904
5856
5880
5888
5904
5896
5904
5920
5936
5936
5928
5904
5864
5872
5808
5784
5760
5728
5720
5720
5704
5704
5728
5688
5704
5680
5696
5696
5664
5704
5680
5704
5672
5712
5744
5728
5720
5704
5720
5704
5744
5728
5728
5736
5744
5744
5768
5792
5760
5800
5752
5800
5784
5792
5808
5792
5792
5824
5816
5808
5840
5840
5808
5864
5848
5832
5864
5856
5888
5904
5880
5872
5888
5872
5888
5880
5904
5896
5912
5864
5856
5832
5816
5776
5760
5736
5728
5736
5720
5704
5696
5704
5696
5664
5712
5720
5712
5696
5696
5704
5720
5728
5720
5744
5712
5712
5744
5744
5736
5752
5784
5792
5744
5752
5776
5784
5768
5816
5784
5784
5808
5784
5824
5824
5848
5800
5816
5824
5864
5816
5840
5848
5864
5840
5848
5848
5856
5856
5856
5888
5896
5888
5896
5888
5880
5848
5808
5768
5776
5736
5704
5712
5688
5704
5720
5672
5704
5680
5664
5672
5656
5696
5712
5680
5696
5728
5696
5712
5712
5712
5744
5728
5696
5712
5712
5736
5752
5744
5768
5760
5768
5768
5776
5800
5808
5792
5824
5792
5792
5792
5808
5824
5832
5816
5824
5840
5840
5848
5840
5840
5848
5848
5864
5888
5880
5880
5872
5888
5848
5824
5776
5744
5728
5688
5672
5688
5672
5656
5648
5656
5640
5640
5656
5648
5608
5664
5640
5648
5680
5656
5672
5688
5704
5680
5712
5704
5712
5680
5696
5704
5728
5736
5712
5752
5760
5768
5736
5744
5760
5752
5752
5736
5784
5784
5792
5752
5784
5784
5784
5768
5824
5824
5832
5816
5808
5832
5848
5856
5856
5832
5840
5848
5848
5816
5832
5784
5736
5704
5664
5632
5632
5648
5632
5640
5640
5624
5648
5632
5616
5600
5632
5632
5664
5648
5672
5664
5664
5664
5664
5680
5656
5656
5664
5664
5672
5664
5688
5680
5688
5712
5720
5712
5720
5744
5728
5728
5728
5744
5736
5760
5800
5784
5760
5760
5776
5784
5776
5792
5768
5784
5792
5784
5800
5800
5824
5848
5792
5816
5768
5760
5696
5672
5632
5640
5632
5608
5608
5592
5608
5632
5624
5608
5592
5592
5624
5592
5616
5664
5632
5632
5624
5640
5664
5648
5656
5624
5672
5640
5672
5648
5664
5648
5672
5648
5672
5664
5672
5672
5704
5696
5704
5712
5720
5728
5744
5720
5736
5712
5720
5736
5736
5736
5736
5752
5720
5696
5664
5616
5632
5592
5600
5592
5584
5568
5560
5552
5560
5544
5544
5560
5528
5600
5568
5584
5576
5600
5576
5616
5576
5576
5600
5600
5616
5608
5616
5624
5600
5624
5608
5608
5600
5672
5624
5624
5672
5648
5632
5648
5672
5664
5664
5696
5664
5696
5688
5680
5704
5672
5680
5688
5688
5720
5720
5720
5704
5728
5680
5632
5616
5568
5544
5552
5520
5536
5536
5528
5536
5520
5512
5512
5488
5536
5528
5536
5552
5560
5560
5576
5520
5584
5576
5592
5568
5568
5560
5600
5608
5616
5592
5608
5616
5632
5640
5640
5632
5648
5640
5688
5688
5680
5688
5696
5720
5712
5704
5688
5696
5704
5728
5736
5728
5744
5760
5736
5736
5736
5736
5736
5688
5712
5656
5624
5632
5624
5608
5608
5584
5568
5592
5584
5600
5544
5568
5552
5576
5592
5608
5616
5632
5616
5640
5616
5608
5640
5624
5640
5648
5648
5712
5672
5664
5680
5688
5720
5704
5720
5704
5712
5744
5736
5752
5744
5744
5752
5768
5736
5752
5752
5768
5816
5800
5792
5784
5848
5832
5848
5800
5816
5840
5832
5832
5864
5848
5864
5880
5832
5848
5848
5856
5832
5792
5776
5752
5736
5736
5744
5736
5736
5736
5728
5736
5728
5688
5720
5728
5728
5728
5744
5720
5744
5728
5736
5752
5744
5768
5784
5744
5768
5768
5744
5784
5808
5784
5800
5792
5816
5776
5792
5816
5800
5832
5800
5832
5856
5832
5848
5864
5864
5896
5864
5872
5856
5888
5888
5864
5920
5896
5896
5896
5904
5864
5920
5864
5864
5856
5816
5840
5792
5784
5808
5816
5792
5816
5784
5784
5768
5792
5752
5768
5784
5792
5760
5800
5792
5816
5792
5800
5824
5808
5824
5816
5832
5832
5824
5864
5840
5856
5816
5864
5888
5864
5872
5888
5912
5896
5904
5896
5912
5920
5904
5904
5880
5920
5944
5944
5952
5936
5920
5944
5984
5928
5968
5992
5984
5960
5968
6000
5976
5992
5976
5984
5968
5960
5944
5968
5936
5968
5936
5936
5920
5904
5912
5896
5872
5872
5896
5848
5904
5864
5832
5848
5904
5872
5856
5856
5880
5864
5880
5888
5896
5896
5904
5888
5880
5872
5896
5904
5912
5896
5920
5952
5936
5944
5976
5928
5928
5944
5936
5952
5968
5928
5984
5968
5992
5944
5992
5984
5968
5984
6000
5976
5992
6008
5968
6000
6032
6024
6024
6032
6008
6024
6000
6008
6048
6048
6024
6016
6024
6040
6016
5952
5968
5984
5976
5968
5936
5920
5944
5952
5912
5888
5888
5904
5896
5872
5880
5848
5872
5872
5880
5864
5864
5880
5840
5888
5880
5856
5888
5888
5880
5880
5912
5864
5904
5896
5912
5912
5896
5904
5928
5888
5920
5944
5944
5928
5960
5936
5912
5968
5928
5960
5944
5928
5944
5928
5944
5952
5944
5976
5976
5992
5984
5968
5968
6016
5960
5968
5920
5912
5896
5896
5848
5848
5840
5824
5832
5800
5784
5784
5808
5792
5792
5752
5752
5776
5784
5776
5808
5800
5800
5784
5792
5808
5800
5784
5792
5824
5800
5808
5856
5824
5816
5840
5840
5856
5856
5848
5848
5896
5880
5880
5872
5896
5872
5864
5896
5872
5920
5904
5912
5904
5880
5920
5936
5880
5904
5944
5936
5928
5944
5936
5928
5936
5904
5912
5880
5848
5808
5768
5776
5752
5752
5744
5728
5712
5704
5736
5688
5744
5704
5728
5720
5720
5728
5744
5744
5728
5728
5768
5744
5720
5752
5744
5760
5752
5776
5776
5792
5792
5768
5776
5784
5776
5832
5816
5832
5800
5832
5824
5840
5848
5864
5840
5872
5856
5856
5848
5856
5888
5872
5856
5864
5864
5856
5904
5864
5904
5888
5880
5888
5928
5904
5912
5880
5848
5840
5792
5768
5744
5744
5720
5752
5752
5712
5704
5720
5704
5688
5720
5728
5720
5696
5712
5712
5712
5728
5760
5736
5720
5744
5760
5752
5736
5752
5752
5760
5784
5768
5792
5768
5792
5776
5816
5800
5824
5808
5824
5824
5816
5816
5816
5832
5824
5840
5840
5816
5840
5856
5856
5848
5832
5864
5856
5832
5848
5848
5824
5824
5744
5728
5680
5680
5688
5696
5680
5672
5664
5656
5656
5648
5640
5672
5688
5664
5672
5696
5672
5640
5704
5688
5688
5712
5704
5720
5720
5704
5736
5704
5752
5736
5712
5752
5768
5792
5728
5760
5768
5776
5768
5776
5776
5800
5784
5808
5792
5800
5808
5816
5832
5792
5840
5800
5808
5824
5816
5824
5832
5816
5792
5776
5736
5696
5712
5664
5664
5648
5624
5640
5632
5616
5608
5600
5592
5592
5608
5608
5600
5608
5640
5664
5648
5664
5664
5632
5680
5672
5672
5664
5672
5648
5672
5704
5704
5704
5712
5704
5712
5704
5712
5752
5704
5736
5736
5744
5752
5744
5744
5752
5752
5752
5784
5784
5752
5760
5792
5776
5808
5808
5800
5800
5840
5816
5848
5824
5792
5816
5792
5776
5720
5688
5656
5672
5640
5624
5632
5608
5592
5624
5600
5600
5592
5624
5592
5632
5648
5640
5648
5632
5648
5672
5640
5672
5648
5648
5656
5656
5672
5664
5680
5680
5688
5712
5672
5720
5704
5728
5696
5728
5736
5704
5744
5752
5752
5744
5736
5720
5760
5760
5744
5768
5760
5760
5800
5744
5768
5800
5808
5800
5816
5800
5784
5792
5808
5792
5800
5760
5744
5760
5704
5688
5640
5648
5664
5600
5600
5592
5600
5584
5584
5608
5584
5552
5584
5632
5608
5600
5632
5624
5632
5616
5640
5608
5640
5632
5672
5640
5624
5632
5664
5640
5664
5672
5656
5672
5640
5712
5696
5704
5696
5704
5696
5704
5720
5712
5712
5704
5728
5736
5704
5720
5744
5744
5744
5744
5720
5744
5736
5784
5768
5752
5760
5776
5784
5768
5728
5744
5720
5664
5664
5648
5624
5616
5584
5576
5592
5576
5576
5600
5544
5568
5576
5568
5576
5592
5624
5600
5624
5592
5640
5592
5616
5616
5640
5632
5600
5624
5648
5664
5664
5648
5680
5672
5648
5656
5672
5664
5672
5680
5688
5680
5712
5712
5712
5704
5712
5720
5696
5728
5728
5736
5752
5760
5728
5744
5784
5752
5760
5760
5784
5744
5776
5792
5752
5792
5776
5744
5728
5728
5656
5648
5632
5608
5616
5552
5608
5568
5568
5560
5592
5568
5600
5576
5584
5576
5592
5600
5632
5600
5624
5632
5648
5648
5648
5664
5632
5648
5616
5688
5648
5680
5680
5696
5664
5672
5688
5712
5696
5704
5696
5712
5712
5728
5712
5736
5696
5744
5720
5712
5728
5720
5752
5752
5760
5744
5760
5776
5752
5736
5776
5776
5768
5760
5800
5800
5776
5776
5768
5768
5720
5696
5648
5640
5600
5648
5600
5600
5616
5600
5576
5576
5568
5584
5576
5592
5592
5608
5632
5624
5640
5640
5640
5624
5648
5608
5624
5648
5632
5656
5648
5648
5672
5664
5648
5656
5688
5672
5696
5688
5704
5720
5728
5712
5728
5744
5744
5736
5720
5744
5736
5744
5776
5760
5760
5784
5752
5784
5744
5768
5744
5784
5800
5792
5824
5792
5800
5744
5736
5696
5648
5624
5600
5584
5568
5584
5608
5568
5560
5568
5608
5592
5560
5592
5568
5616
5600
5616
5600
5608
5608
5600
5624
5640
5632
5616
5632
5648
5648
5648
5616
5648
5656
5664
5704
5656
5688
5688
5688
5672
5720
5696
5688
5704
5680
5704
5728
5688
5696
5712
5712
5712
5744
5768
5744
5720
5744
5736
5736
5744
5760
5744
5768
5768
5768
5712
5696
5664
5608
5616
5560
5600
5576
5584
5560
5520
5560
5536
5544
5560
5544
5560
5608
5584
5576
5592
5616
5600
5592
5600
5592
5592
5632
5640
5648
5648
5664
5648
5648
5624
5648
5656
5680
5656
5672
5664
5688
5704
5696
5712
5696
5720
5704
5688
5704
5696
5712
5736
5720
5728
5728
5752
5760
5744
5728
5760
5744
5760
5776
5776
5768
5736
5728
5720
5696
5672
5640
5584
5560
5616
5568
5560
5592
5592
5584
5584
5576
5560
5584
5584
5608
5584
5608
5616
5600
5640
5600
5632
5608
5608
5608
5640
5632
5656
5624
5608
5648
5640
5656
5648
5640
5688
5656
5680
5664
5688
5704
5688
5696
5704
5704
5744
5704
5720
5704
5720
5728
5736
5744
5736
5704
5736
5760
5736
5736
5720
5680
5624
5624
5608
5560
5552
5560
5576
5544
5568
5520
5536
5536
5520
5528
5504
5544
5528
5552
5544
5584
5592
5568
5560
5592
5584
5592
5576
5600
5576
5616
5608
5592
5608
5632
5640
5616
5640
5624
5672
5624
5656
5672
5664
5664
5664
5640
5672
5680
5680
5712
5688
5720
5688
5688
5704
5720
5720
5728
5720
5704
5712
5720
5736
5752
5712
5712
5688
5680
5632
5592
5624
5592
5576
5568
5536
5536
5560
5504
5536
5544
5528
5536
5544
5576
5592
5560
5584
5584
5576
5600
5592
5568
5600
5608
5584
5584
5616
5592
5640
5648
5648
5624
5632
5632
5632
5640
5640
5640
5632
5664
5632
5688
5640
5688
5648
5656
5672
5688
5672
5680
5680
5672
5664
5720
5688
5704
5696
5712
5736
5720
5728
5744
5728
5736
5744
5696
5712
5672
5616
5616
5584
5552
5544
5552
5536
5512
5520
5544
5536
5496
5520
5528
5528
5528
5552
5552
5568
5568
5560
5576
5576
5568
5576
5568
5608
5560
5576
5584
5616
5616
5608
5632
5600
5632
5648
5640
5648
5656
5688
5640
5648
5672
5672
5688
5672
5680
5672
5680
5696
5664
5728
5696
5712
5720
5728
5704
5736
5720
5688
5672
5672
5640
5576
5600
5576
5560
5536
5600
5512
5520
5552
5512
5520
5528
5544
5544
5528
5560
5584
5576
5568
5584
5568
5576
5584
5560
5560
5584
5576
5584
5600
5616
5632
5608
5640
5616
5632
5656
5640
5616
5632
5656
5640
5640
5664
5656
5704
5672
5688
5672
5704
5696
5712
5720
5704
5704
5696
5696
5736
5720
5728
5712
5720
5728
5752
5744
5752
5720
5688
5664
5640
5616
5616
5584
5576
5568
5576
5584
5560
5536
5576
5560
5576
5592
5576
5584
5608
5592
5624
5600
5576
5600
5648
5608
5608
5632
5632
5640
5648
5664
5664
5680
5672
5688
5680
5672
5672
5680
5704
5688
5704
5704
5704
5736
5744
5736
5704
5776
5744
5752
5744
5760
5752
5768
5752
5776
5784
5784
5776
5800
5800
5816
5832
5832
5824
5840
5816
5848
5848
5840
5856
5848
5808
5808
5776
5760
5760
5712
5728
5728
5712
5704
5728
5712
5712
5696
5712
5680
5704
5728
5704
5696
5720
5744
5712
5704
5728
5728
5736
5744
5760
5744
5760
5720
5760
5768
5768
5744
5784
5784
5776
5776
5792
5848
5776
5784
5800
5808
5816
5840
5816
5808
5848
5840
5840
5848
5840
5856
5840
5896
5904
5880
5880
5888
5896
5880
5880
5880
5888
5840
5856
5816
5816
5784
5768
5776
5760
5792
5752
5744
5768
5744
5744
5784
5768
5792
5792
5792
5768
5800
5808
5768
5800
5808
5800
5816
5824
5840
5808
5840
5808
5864
5872
5848
5872
5864
5848
5872
5856
5864
5856
5872
5888
5872
5920
5888
5904
5896
5912
5928
5920
5936
5912
5936
5952
5968
5976
5936
5944
5920
5936
5928
5912
5912
5928
5920
5896
5880
5888
5864
5848
5832
5832
5824
5832
5840
5808
5832
5792
5776
5824
5808
5816
5800
5824
5808
5800
5824
5824
5840
5840
5824
5848
5832
5848
5848
5856
5872
5896
5880
5928
5904
5904
5840
5896
5896
5896
5904
5904
5936
5888
5896
5928
5960
5928
5944
5952
5936
5960
5952
5968
5952
5936
5992
6008
5968
5992
5984
5984
5992
5968
5952
5960
5920
5896
5952
5928
5896
5880
5864
5880
5856
5840
5864
5872
5808
5848
5848
5864
5864
5840
5864
5872
5864
5848
5848
5848
5840
5880
5880
5872
5872
5872
5888
5872
5896
5888
5888
5904
5920
5928
5912
5912
5912
5888
5904
5936
5912
5912
5952
5920
5960
5968
5936
5944
5968
5968
5976
5952
5976
5968
5952
5912
5928
5888
5888
5840
5856
5840
5808
5800
5800
5792
5808
5736
5768
5752
5768
5760
5776
5768
5768
5792
5776
5792
5792
5800
5784
5816
5824
5808
5808
5832
5840
5792
5824
5808
5808
5832
5848
5848
5848
5872
5880
5848
5848
5872
5904
5888
5872
5872
5848
5880
5872
5872
5904
5896
5896
5888
5912
5912
5896
5928
5912
5944
5952
5928
5928
5904
5896
5880
5856
5840
5800
5800
5776
5752
5776
5720
5752
5736
5736
5744
5720
5720
5744
5752
5720
5760
5736
5736
5752
5720
5768
5768
5736
5736
5760
5776
5784
5784
5784
5808
5800
5768
5808
5808
5800
5816
5824
5832
5792
5840
5824
5808
5832
5824
5816
5832
5856
5848
5856
5864
5864
5880
5872
5864
5864
5840
5864
5840
5896
5872
5880
5888
5888
5904
5904
5872
5880
5840
5824
5792
5792
5736
5744
5712
5712
5688
5696
5704
5688
5656
5696
5656
5696
5664
5696
5688
5672
5704
5712
5680
5712
5744
5712
5696
5744
5728
5736
5728
5712
5736
5760
5744
5744
5760
5736
5768
5768
5768
5760
5784
5792
5768
5800
5744
5776
5800
5800
5792
5808
5832
5776
5816
5792
5816
5808
5824
5824
5768
5800
5784
5776
5704
5712
5680
5656
5640
5616
5632
5624
5608
5600
5616
5592
5608
5624
5616
5592
5632
5616
5640
5624
5648
5672
5664
5696
5624
5656
5688
5664
5664
5664
5672
5680
5680
5672
5696
5728
5704
5736
5712
5728
5744
5736
5728
5744
5736
5744
5736
5712
5744
5752
5752
5752
5776
5728
5800
5760
5760
5776
5736
5768
5760
5800
5808
5792
5776
5744
5736
5712
5680
5664
5656
5656
5624
5592
5616
5616
5616
5608
5608
5592
5600
5600
5600
5600
5640
5616
5616
5624
5632
5632
5608
5648
5656
5672
5648
5672
5664
5672
5712
5656
5720
5720
5736
5728
5696
5744
5744
5760
5760
5776
5768
5736
5752
5752
5776
5768
5736
5744
5776
5776
5776
5760
5768
5792
5784
5776
5784
5800
5800
5824
5776
5800
5824
5816
5784
5768
5736
5704
5672
5680
5624
5608
5640
5608
5576
5592
5608
5592
5576
5576
5584
5576
5568
5600
5600
5584
5632
5632
5600
5608
5616
5608
5632
5632
5632
5632
5664
5648
5648
5632
5680
5648
5648
5672
5664
5680
5688
5696
5704
5720
5688
5680
5728
5712
5752
5704
5736
5720
5752
5752
5736
5768
5744
5760
5744
5752
5744
5776
5776
5736
5704
5704
5680
5632
5608
5624
5584
5560
5592
5592
5592
5560
5552
5576
5576
5520
5560
5584
5560
5560
5584
5592
5592
5624
5608
5632
5632
5632
5616
5648
5656
5648
5664
5664
5640
5648
5656
5680
5656
5664
5720
5688
5688
5672
5696
5688
5704
5728
5728
5712
5688
5720
5720
5720
5728
5736
5736
5744
5752
5752
5760
5760
5776
5768
5784
5760
5768
5752
5768
5728
5672
5680
5640
5608
5592
5584
5624
5576
5600
5568
5584
5584
5584
5544
5584
5608
5600
5608
5624
5608
5624
5616
5608
5640
5632
5648
5624
5672
5656
5664
5704
5688
5688
5680
5656
5672
5720
5696
5712
5720
5680
5728
5728
5736
5736
5720
5752
5760
5752
5728
5768
5784
5736
5776
5792
5768
5768
5784
5800
5776
5816
5808
5792
5776
5768
5728
5680
5656
5632
5608
5624
5624
5624
5600
5592
5584
5616
5624
5600
5592
5624
5648
5624
5608
5648
5640
5656
5648
5656
5648
5616
5656
5656
5680
5664
5696
5680
5696
5656
5712
5688
5720
5704
5696
5744
5696
5720
5736
5736
5744
5736
5736
5704
5728
5736
5720
5736
5760
5752
5760
5760
5704
5672
5648
5632
5584
5616
5568
5592
5592
5568
5552
5544
5576
5520
5560
5552
5552
5552
5568
5608
5600
5616
5584
5608
5576
5600
5608
5584
5616
5608
5600
5640
5632
5640
5624
5632
5632
5648
5648
5640
5664
5672
5664
5696
5672
5680
5672
5696
5688
5696
5688
5672
5696
5720
5696
5704
5720
5704
5688
5720
5736
5704
5704
5680
5624
5616
5576
5552
5544
5536
5520
5488
5520
5528
5528
5528
5504
5488
5512
5504
5520
5512
5528
5536
5576
5528
5576
5544
5576
5552
5568
5592
5576
5584
5600
5592
5576
5608
5600
5616
5616
5600
5616
5624
5624
5640
5624
5616
5640
5640
5640
5640
5680
5672
5688
5672
5696
5696
5688
5696
5696
5672
5704
5680
5728
5672
5728
5720
5720
5720
5688
5696
5648
5592
5552
5568
5576
5568
5552
5520
5552
5560
5536
5528
5520
5536
5544
5552
5576
5552
5560
5584
5552
5584
5584
5616
5560
5560
5592
5624
5592
5592
5608
5608
5624
5640
5632
5616
5640
5648
5648
5648
5648
5680
5672
5696
5688
5696
5712
5744
5712
5680
5720
5712
5752
5760
5728
5752
5752
5744
5752
5760
5760
5784
5760
5760
5768
5768
5736
5736
5672
5656
5632
5608
5600
5640
5584
5600
5584
5592
5592
5568
5568
5552
5584
5600
5592
5592
5592
5632
5608
5640
5616
5632
5608
5592
5616
5640
5656
5648
5648
5656
5640
5632
5648
5672
5680
5688
5696
5704
5688
5680
5696
5720
5696
5704
5680
5704
5688
5744
5752
5760
5736
5736
5728
5744
5752
5728
5752
5720
5728
5696
5640
5656
5632
5624
5584
5592
5600
5600
5608
5576
5568
5584
5584
5584
5592
5584
5616
5600
5632
5624
5616
5640
5624
5616
5640
5592
5648
5624
5632
5624
5648
5632
5672
5664
5672
5680
5664
5680
5704
5696
5712
5688
5712
5688
5736
5704
5728
5736
5744
5712
5704
5704
5728
5712
5728
5736
5752
5736
5752
5744
5768
5760
5768
5720
5720
5712
5656
5640
5624
5624
5632
5584
5584
5584
5592
5568
5608
5568
5584
5576
5584
5616
5600
5608
5624
5584
5632
5632
5648
5608
5648
5656
5632
5616
5640
5648
5640
5696
5672
5680
5680
5672
5664
5680
5720
5680
5672
5696
5720
5688
5728
5744
5744
5736
5752
5752
5744
5752
5760
5752
5760
5736
5744
5784
5760
5792
5784
5800
5784
5792
5800
5800
5800
5760
5784
5744
5752
5712
5672
5656
5616
5616
5632
5624
5648
5656
5608
5648
5616
5656
5624
5648
5656
5648
5656
5688
5640
5672
5672
5680
5672
5672
5688
5704
5672
5672
5696
5696
5712
5704
5696
5696
5712
5736
5720
5752
5720
5728
5712
5736
5728
5752
5760
5744
5768
5744
5768
5800
5760
5768
5808
5784
5808
5800
5792
5816
5776
5784
5824
5792
5776
5744
5720
5728
5688
5672
5680
5696
5656
5704
5656
5672
5688
5680
5648
5656
5640
5664
5672
5696
5672
5696
5664
5704
5680
5680
5704
5672
5688
5672
5704
5688
5680
5712
5720
5736
5760
5728
5736
5776
5760
5768
5760
5776
5776
5776
5808
5792
5800
5760
5792
5824
5784
5832
5792
5816
5856
5816
5832
5824
5840
5832
5808
5856
5872
5848
5824
5808
5824
5792
5760
5736
5728
5744
5736
5712
5688
5728
5664
5720
5656
5688
5672
5680
5688
5688
5696
5704
5696
5720
5696
5728
5736
5712
5696
5736
5728
5736
5744
5744
5752
5728
5752
5760
5760
5760
5768
5784
5776
5768
5776
5744
5792
5784
5816
5792
5784
5800
5816
5800
5848
5832
5824
5832
5856
5824
5872
5840
5872
5848
5848
5848
5832
5792
5800
5792
5768
5736
5744
5720
5712
5712
5680
5728
5696
5688
5696
5688
5704
5704
5720
5680
5696
5704
5728
5728
5704
5696
5712
5712
5752
5728
5760
5728
5744
5752
5760
5760
5752
5776
5728
5768
5776
5784
5776
5736
5768
5776
5784
5784
5784
5816
5776
5800
5832
5832
5816
5832
5840
5816
5816
5840
5832
5840
5824
5816
5768
5760
5752
5744
5736
5680
5696
5672
5688
5704
5664
5680
5648
5704
5656
5664
5656
5680
5688
5696
5688
5712
5712
5720
5680
5688
5696
5704
5680
5712
5744
5712
5712
5688
5728
5728
5736
5736
5792
5744
5744
5760
5776
5800
5832
5792
5800
5784
5832
5816
5800
5800
5800
5824
5768
5816
5800
5824
5824
5856
5840
5840
5840
5800
5760
5736
5736
5728
5680
5656
5648
5704
5656
5648
5688
5648
5632
5608
5632
5640
5656
5648
5664
5696
5648
5648
5680
5640
5672
5672
5656
5664
5704
5688
5696
5704
5672
5696
5720
5704
5688
5728
5720
5720
5736
5720
5776
5752
5760
5784
5768
5784
5792
5768
5792
5776
5792
5784
5792
5800
5792
5792
5768
5816
5792
5824
5800
5808
5800
5784
5776
5744
5728
5720
5680
5672
5656
5640
5680
5632
5656
5616
5640
5648
5592
5624
5632
5608
5656
5640
5672
5648
5680
5648
5656
5648
5680
5680
5680
5664
5696
5688
5688
5696
5680
5680
5720
5720
5728
5704
5736
5728
5728
5736
5752
5736
5736
5760
5752
5752
5776
5800
5776
5768
5784
5760
5800
5800
5784
5792
5784
5792
5776
5760
5752
5760
5744
5688
5712
5688
5640
5656
5624
5600
5616
5632
5632
5624
5616
5592
5632
5616
5656
5632
5624
5640
5632
5648
5656
5624
5632
5632
5664
5656
5616
5680
5672
5688
5680
5704
5696
5680
5688
5744
5720
5720
5736
5720
5696
5712
5744
5744
5760
5760
5736
5736
5760
5760
5736
5760
5744
5784
5784
5736
5800
5792
5784
5808
5792
5768
5792
5784
5760
5744
5720
5712
5688
5688
5624
5616
5616
5632
5624
5616
5592
5616
5584
5584
5576
5616
5608
5632
5632
5640
5624
5632
5640
5648
5672
5648
5624
5672
5656
5664
5648
5672
5664
5696
5712
5696
5688
5720
5712
5712
5744
5744
5720
5744
5760
5744
5728
5744
5752
5784
5792
5784
5768
5784
5824
5808
5800
5784
5832
5776
5792
5808
5856
5832
5800
5848
5848
5848
5832
5864
5872
5848
5816
5808
5744
5728
5720
5688
5648
5624
5640
5664
5648
5656
5624
5624
5648
5656
5616
5632
5624
5648
5680
5672
5648
5680
5648
5656
5688
5672
5688
5696
5680
5672
5720
5704
5712
5712
5712
5720
5720
5728
5744
5728
5760
5784
5792
5760
5768
5776
5776
5744
5728
5784
5776
5808
5808
5832
5808
5800
5776
5792
5824
5792
5824
5808
5816
5816
5816
5832
5768
5736
5688
5640
5656
5632
5632
5640
5664
5624
5632
5624
5624
5640
5664
5672
5688
5640
5656
5672
5656
5664
5672
5664
5648
5680
5664
5672
5672
5712
5704
5696
5696
5680
5720
5720
5696
5720
5696
5728
5720
5728
5720
5744
5768
5752
5760
5744
5776
5792
5768
5792
5736
5776
5792
5824
5784
5792
5792
5824
5776
5800
5744
5760
5688
5712
5688
5616
5640
5600
5624
5632
5584
5640
5600
5608
5584
5576
5608
5576
5592
5584
5624
5632
5656
5608
5648
5616
5600
5656
5640
5656
5680
5648
5664
5680
5664
5656
5704
5696
5688
5688
5704
5712
5688
5712
5720
5712
5696
5744
5728
5728
5712
5744
5776
5728
5736
5760
5768
5768
5760
5760
5776
5784
5784
5776
5784
5784
5808
5776
5776
5752
5712
5680
5672
5656
5624
5600
5608
5616
5600
5584
5584
5600
5576
5584
5584
5592
5600
5616
5624
5616
5616
5640
5648
5640
5608
5632
5640
5656
5648
5656
5672
5656
5664
5680
5656
5664
5648
5648
5672
5664
5704
5672
5712
5728
5728
5680
5688
5704
5736
5720
5720
5728
5720
5784
5768
5736
5752
5752
5736
5792
5760
5752
5776
5768
5768
5776
5760
5736
5688
5680
5648
5616
5616
5600
5608
5576
5600
5584
5560
5584
5592
5600
5608
5600
5600
5608
5576
5592
5608
5632
5600
5616
5624
5608
5624
5640
5640
5640
5640
5664
5680
5680
5656
5672
5680
5664
5688
5680
5664
5680
5704
5672
5688
5672
5704
5696
5696
5704
5720
5712
5712
5728
5728
5712
5720
5704
5720
5768
5752
5736
5736
5672
5648
5632
5632
5576
5584
5608
5584
5624
5592
5584
5592
5608
5584
5600
5608
5616
5600
5584
5608
5600
5624
5632
5640
5640
5656
5672
5632
5648
5672
5664
5672
5640
5664
5680
5696
5656
5672
5720
5688
5712
5728
5712
5720
5720
5712
5712
5736
5728
5744
5728
5784
5744
5744
5736
5760
5768
5768
5792
5776
5792
5792
5776
5760
5752
5704
5680
5672
5648
5640
5632
5624
5640
5608
5616
5592
5592
5592
5616
5592
5656
5608
5632
5632
5656
5616
5640
5624
5632
5648
5656
5632
5664
5680
5648
5656
5648
5712
5656
5672
5672
5704
5680
5688
5712
5680
5680
5712
5728
5712
5704
5744
5744
5760
5736
5752
5728
5744
5752
5744
5720
5744
5760
5736
5776
5776
5744
5776
5784
5800
5776
5792
5792
5752
5696
5704
5680
5640
5656
5640
5632
5616
5648
5624
5608
5616
5624
5608
5616
5616
5608
5616
5640
5624
5632
5632
5640
5656
5640
5656
5664
5640
5640
5664
5680
5672
5680
5688
5680
5672
5688
5704
5680
5720
5728
5704
5704
5704
5720
5704
5736
5720
5736
5744
5728
5744
5752
5752
5752
5752
5760
5760
5760
5792
5768
5800
5792
5792
5776
5792
5792
5776
5792
5744
5720
5688
5680
5680
5656
5624
5640
5648
5608
5616
5632
5608
5584
5600
5608
5656
5648
5648
5664
5632
5648
5632
5632
5648
5648
5640
5632
5640
5624
5664
5688
5680
5664
5672
5688
5680
5696
5680
5672
5664
5680
5704
5696
5712
5728
5736
5688
5712
5712
5696
5736
5712
5720
5736
5760
5720
5728
5768
5752
5744
5768
5760
5760
5752
5728
5728
5704
5640
5664
5616
5624
5592
5600
5608
5576
5568
5576
5568
5592
5552
5584
5592
5600
5592
5576
5624
5592
5600
5576
5592
5624
5600
5584
5600
5624
5616
5600
5640
5624
5600
5664
5632
5624
5624
5680
5656
5656
5664
5680
5704
5672
5680
5696
5712
5696
5696
5688
5688
5720
5720
5696
5736
5736
5744
5728
5736
5744
5704
5760
5744
5784
5776
5752
5768
5752
5784
5744
5784
5776
5784
5752
5760
5760
5720
5712
5688
5656
5648
5648
5632
5600
5624
5632
5600
5600
5616
5616
5592
5584
5584
5608
5640
5584
5632
5600
5624
5648
5624
5648
5632
5640
5632
5648
5632
5656
5656
5688
5656
5664
5672
5672
5696
5704
5688
5712
5696
5744
5712
5712
5712
5688
5744
5720
5752
5744
5752
5768
5760
5792
5752
5744
5792
5800
5776
5800
5800
5808
5824
5808
5808
5824
5824
5832
5832
5832
5848
5832
5840
5880
5848
5864
5872
5840
5824
5784
5784
5768
5744
5720
5688
5704
5696
5696
5672
5672
5672
5672
5672
5672
5680
5664
5680
5680
5680
5696
5728
5720
5704
5720
5696
5688
5696
5720
5704
5696
5680
5712
5728
5704
5712
5712
5760
5760
5768
5752
5736
5744
5776
5752
5776
5784
5776
5760
5800
5800
5792
5824
5824
5800
5832
5832
5808
5808
5832
5824
5792
5840
5864
5856
5832
5848
5832
5848
5856
5840
5880
5840
5856
5816
5824
5800
5792
5744
5736
5704
5720
5712
5712
5712
5672
5696
5688
5688
5688
5688
5696
5680
5688
5696
5704
5712
5712
5728
5720
5728
5704
5760
5712
5736
5736
5768
5736
5736
5744
5752
5744
5744
5760
5768
5736
5760
5760
5784
5784
5768
5792
5776
5800
5816
5808
5768
5800
5800
5776
5816
5848
5824
5848
5824
5856
5848
5808
5840
5824
5856
5848
5872
5840
5808
5816
5776
5768
5720
5720
5720
5728
5680
5672
5664
5680
5672
5656
5648
5680
5672
5648
5648
5664
5688
5680
5672
5704
5688
5680
5688
5704
5712
5704
5712
5688
5720
5720
5696
5680
5712
5688
5744
5752
5752
5776
5744
5760
5744
5768
5792
5784
5744
5752
5784
5784
5760
5800
5792
5800
5784
5776
5800
5816
5784
5792
5816
5832
5776
5808
5848
5816
5808
5840
5832
5800
5792
5776
5704
5664
5688
5664
5696
5688
5640
5648
5664
5648
5608
5640
5632
5616
5600
5648
5648
5608
5688
5664
5632
5640
5648
5648
5664
5656
5688
5688
5648
5680
5688
5672
5680
5688
5672
5688
5720
5696
5696
5712
5712
5720
5720
5704
5728
5744
5736
5744
5696
5744
5744
5752
5728
5768
5760
5768
5816
5760
5784
5760
5792
5808
5760
5792
5808
5776
5816
5776
5792
5792
5784
5768
5760
5720
5680
5640
5656
5640
5632
5616
5640
5608
5608
5592
5600
5592
5624
5584
5632
5592
5632
5632
5648
5624
5616
5648
5624
5648
5664
5648
5616
5648
5656
5656
5680
5664
5688
5672
5664
5672
5696
5680
5672
5696
5696
5704
5696
5736
5704
5712
5704
5704
5712
5728
5728
5736
5720
5776
5752
5752
5760
5792
5776
5776
5768
5800
5736
5792
5768
5776
5728
5704
5672
5648
5624
5616
5600
5592
5608
5624
5568
5584
5600
5584
5576
5584
5576
5608
5576
5608
5568
5592
5616
5608
5600
5616
5576
5632
5600
5592
5608
5608
5624
5640
5632
5632
5632
5656
5648
5664
5656
5664
5680
5696
5664
5712
5704
5704
5720
5672
5704
5696
5688
5728
5704
5736
5712
5712
5728
5768
5744
5768
5736
5744
5792
5744
5776
5760
5776
5752
5752
5776
5744
5760
5728
5712
5696
5664
5600
5624
5608
5592
5632
5592
5560
5576
5560
5584
5512
5568
5576
5536
5552
5576
5584
5568
5576
5568
5576
5584
5584
5584
5624
5592
5584
5608
5624
5632
5632
5648
5624
5624
5608
5632
5632
5648
5672
5648
5688
5656
5680
5688
5704
5680
5712
5672
5680
5704
5720
5688
5720
5688
5736
5720
5752
5728
5728
5728
5744
5768
5752
5768
5752
5776
5768
5784
5776
5808
5760
5736
5720
5656
5648
5608
5632
5608
5584
5584
5600
5608
5616
5576
5544
5608
5608
5592
5568
5568
5616
5616
5600
5632
5608
5632
5624
5624
5648
5648
5616
5632
5640
5648
5656
5656
5672
5640
5656
5688
5664
5648
5664
5680
5696
5688
5696
5688
5704
5696
5704
5728
5688
5712
5728
5728
5688
5744
5736
5744
5728
5744
5768
5760
5736
5752
5752
5760
5728
5728
5704
5664
5656
5624
5608
5584
5592
5552
5560
5576
5544
5552
5552
5576
5520
5584
5552
5600
5576
5576
5600
5600
5584
5600
5584
5592
5608
5608
5616
5616
5632
5632
5640
5648
5648
5632
5656
5656
5648
5656
5640
5672
5648
5672
5704
5680
5712
5680
5744
5696
5704
5704
5728
5712
5712
5704
5720
5720
5736
5752
5736
5736
5728
5752
5760
5752
5768
5752
5712
5736
5680
5656
5592
5568
5584
5576
5576
5528
5552
5552
5552
5544
5528
5552
5512
5552
5552
5552
5568
5576
5560
5568
5560
5584
5576
5592
5568
5576
5584
5592
5568
5592
5624
5592
5616
5608
5608
5616
5616
5632
5608
5632
5632
5632
5640
5624
5648
5656
5656
5680
5640
5664
5656
5680
5664
5648
5672
5688
5688
5712
5696
5688
5688
5704
5744
5728
5672
5744
5752
5728
5736
5752
5736
5728
5656
5640
5584
5576
5584
5528
5552
5568
5568
5536
5552
5552
5496
5528
5528
5520
5560
5568
5560
5560
5600
5584
5592
5592
5592
5600
5600
5592
5632
5600
5584
5608
5640
5616
5632
5632
5616
5632
5624
5624
5664
5648
5640
5632
5640
5656
5640
5648
5656
5656
5648
5656
5680
5648
5672
5672
5680
5680
5688
5672
5712
5704
5688
5704
5688
5728
5712
5712
5688
5680
5624
5608
5600
5600
5584
5568
5536
5552
5552
5520
5544
5528
5544
5552
5528
5552
5536
5536
5552
5560
5576
5552
5600
5592
5568
5552
5584
5592
5616
5592
5616
5632
5616
5664
5640
5648
5624
5624
5632
5624
5632
5624
5648
5680
5624
5664
5656
5688
5680
5656
5680
5680
5688
5680
5704
5712
5704
5688
5672
5720
5688
5640
5640
5600
5560
5544
5528
5552
5528
5528
5520
5496
5504
5496
5472
5480
5488
5488
5496
5496
5504
5520
5480
5504
5520
5536
5576
5520
5520
5536
5560
5536
5576
5568
5584
5576
5544
5560
5568
5584
5608
5632
5584
5600
5608
5640
5632
5600
5632
5616
5648
5640
5656
5656
5640
5640
5664
5672
5672
5664
5656
5688
5688
5688
5680
5680
5688
5648
5608
5592
5584
5536
5504
5504
5504
5504
5512
5480
5480
5488
5464
5456
5456
5464
5496
5472
5488
5496
5520
5536
5512
5520
5552
5520
5536
5496
5528
5528
5552
5568
5520
5544
5560
5552
5600
5592
5576
5584
5592
5600
5592
5592
5584
5576
5600
5632
5624
5616
5616
5632
5600
5664
5640
5624
5632
5632
5664
5648
5664
5656
5680
5656
5640
5648
5600
5568
5536
5520
5504
5472
5488
5480
5480
5456
5464
5496
5464
5488
5496
5480
5488
5488
5504
5504
5512
5488
5496
5496
5496
5552
5512
5512
5504
5536
5520
5536
5544
5536
5560
5592
5568
5584
5576
5600
5592
5592
5624
5624
5624
5624
5656
5648
5696
5624
5664
5672
5672
5672
5664
5672
5696
5736
5704
5704
5680
5664
5608
5608
5600
5560
5576
5560
5552
5544
5592
5576
5544
5568
5560
5584
5560
5584
5544
5552
5592
5592
5592
5608
5592
5592
5600
5608
5616
5616
5600
5608
5624
5624
5664
5632
5664
5680
5648
5640
5656
5696
5680
5712
5696
5712
5688
5704
5720
5696
5704
5736
5752
5760
5704
5720
5736
5696
5712
5704
5680
5656
5648
5608
5608
5560
5536
5568
5552
5520
5544
5512
5512
5528
5528
5520
5480
5504
5536
5512
5536
5560
5528
5544
5544
5536
5520
5552
5536
5592
5552
5568
5576
5520
5576
5536
5528
5512
5504
5536
5504
5504
5552
5520
5552
5520
5528
5544
5528
5536
5584
5552
5560
5592
5608
5592
5600
5600
5624
5648
5624
5624
5616
5640
5632
5648
5600
5632
5608
5584
5544
5512
5488
5488
5496
5464
5480
5448
5456
5448
5408
5456
5432
5424
5400
5456
5440
5432
5456
5472
5480
5440
5424
5432
5424
5424
5456
5472
5464
5464
5432
5432
5424
5480
5464
5480
5496
5504
5464
5456
5464
5464
5472
5488
5472
5464
5464
5464
5504
5480
5488
5472
5504
5472
5488
5480
5536
5512
5536
5536
5536
5528
5560
5536
5552
5536
5528
5520
5528
5544
5544
5528
5512
5528
5520
5536
5504
5544
5552
5536
5504
5552
5560
5552
5568
5584
5600
5608
5584
5608
5616
5600
5632
5656
5632
5656
5648
5664
5680
5656
5688
5688
5688
5704
5704
5696
5712
5728
5712
5728
5688
5736
5752
5760
5768
5768
5784
5776
5784
5800
5800
5784
5768
5808
5816
5808
5840
5816
5856
5816
5824
5832
5792
5800
5776
5744
5752
5728
5720
5720
5704
5696
5704
5712
5680
5680
5696
5672
5688
5672
5696
5696
5680
5688
5704
5696
5712
5696
5696
5688
5728
5728
5728
5720
5728
5720
5728
5744
5744
5712
5736
5736
5768
5744
5752
5744
5760
5736
5736
5760
5752
5760
5816
5784
5776
5808
5816
5800
5824
5824
5840
5856
5856
5856
5824
5856
5864
5880
5880
5896
5864
5888
5888
5920
5880
5888
5896
5928
5920
5856
5904
5872
5896
5872
5872
5840
5864
5816
5824
5840
5824
5816
5776
5792
5816
5800
5808
5768
5808
5784
5792
5784
5792
5784
5800
5792
5776
5768
5784
5816
5808
5816
5800
5800
5832
5776
5808
5784
5808
5824
5808
5800
5816
5808
5824
5824
5824
5816
5832
5840
5816
5824
5816
5848
5864
5840
5840
5832
5848
5848
5840
5848
5872
5856
5840
5840
5832
5872
5848
5840
5840
5856
5848
5848
5840
5840
5824
5856
5816
5792
5784
5768
5760
5768
5768
5760
5760
5768
5768
5712
5736
5752
5696
5704
5680
5704
5736
